Lk surface

Theta = 0.00241

Maximum at 4Ner(region) = 2.000 : Lk = -844949777.468



4Ner(region)   Pairwise Lk

    0.00  -845860170.717
    0.50  -845338944.315
    1.00  -845035250.859
    1.50  -844950199.386
    2.00  -844949777.468
    2.50  -844990163.582
    3.00  -845053927.377
    3.50  -845132200.333
    4.00  -845218837.130
    4.50  -845309997.747
    5.00  -845403336.514
    5.50  -845497511.564
    6.00  -845591825.292
    6.50  -845685916.340
    7.00  -845779517.187
    7.50  -845872448.218
    8.00  -845964567.915
    8.50  -846055730.817
    9.00  -846145855.418
    9.50  -846234882.048
   10.00  -846322804.702
   10.50  -846409656.168
   11.00  -846495482.393
   11.50  -846580364.062
   12.00  -846664367.010
   12.50  -846747553.968
   13.00  -846829992.504
   13.50  -846911730.700
   14.00  -846992806.515
   14.50  -847073249.394
   15.00  -847153082.474
   15.50  -847232318.047
   16.00  -847310962.125
   16.50  -847389017.241
   17.00  -847466485.412
   17.50  -847543358.139
   18.00  -847619640.796
   18.50  -847695327.912
   19.00  -847770421.548
   19.50  -847844921.802
   20.00  -847918826.162
   20.50  -847992137.971
   21.00  -848064861.450
   21.50  -848137000.978
   22.00  -848208557.480
   22.50  -848279541.262
   23.00  -848349954.120
   23.50  -848419808.464
   24.00  -848489104.601
   24.50  -848557857.295
   25.00  -848626072.580
   25.50  -848693759.413
   26.00  -848760927.589
   26.50  -848827586.207
   27.00  -848893743.549
   27.50  -848959409.973
   28.00  -849024596.605
   28.50  -849089312.068
   29.00  -849153568.187
   29.50  -849217371.356
   30.00  -849280734.106
   30.50  -849343665.280
   31.00  -849406172.470
   31.50  -849468266.677
   32.00  -849529956.035
   32.50  -849591247.667
   33.00  -849652148.958
   33.50  -849712667.321
   34.00  -849772811.861
   34.50  -849832589.455
   35.00  -849892006.382
   35.50  -849951068.787
   36.00  -850009783.235
   36.50  -850068154.330
   37.00  -850126187.901
   37.50  -850183889.818
   38.00  -850241266.073
   38.50  -850298320.505
   39.00  -850355057.089
   39.50  -850411482.031
   40.00  -850467600.836
   40.50  -850523415.783
   41.00  -850578929.926
   41.50  -850634147.406
   42.00  -850689072.735
   42.50  -850743709.505
   43.00  -850798061.019
   43.50  -850852130.957
   44.00  -850905921.053
   44.50  -850959436.267
   45.00  -851012679.655
   45.50  -851065653.863
   46.00  -851118362.157
   46.50  -851170807.138
   47.00  -851222991.901
   47.50  -851274919.792
   48.00  -851326593.338
   48.50  -851378016.432
   49.00  -851429190.544
   49.50  -851480117.726
   50.00  -851530802.074
   50.50  -851581245.579
   51.00  -851631451.003
   51.50  -851681420.484
   52.00  -851731157.402
   52.50  -851780664.171
   53.00  -851829943.503
   53.50  -851878997.638
   54.00  -851927828.209
   54.50  -851976438.015
   55.00  -852024829.156
   55.50  -852073003.908
   56.00  -852120964.561
   56.50  -852168712.200
   57.00  -852216249.141
   57.50  -852263577.673
   58.00  -852310700.179
   58.50  -852357618.320
   59.00  -852404334.230
   59.50  -852450849.816
   60.00  -852497166.627
   60.50  -852543286.712
   61.00  -852589211.436
   61.50  -852634942.555
   62.00  -852680482.184
   62.50  -852725832.501
   63.00  -852770995.336
   63.50  -852815972.548
   64.00  -852860766.406
   64.50  -852905378.655
   65.00  -852949810.690
   65.50  -852994064.607
   66.00  -853038141.609
   66.50  -853082044.158
   67.00  -853125774.217
   67.50  -853169333.249
   68.00  -853212722.604
   68.50  -853255944.819
   69.00  -853299002.118
   69.50  -853341895.691
   70.00  -853384627.185
   70.50  -853427197.838
   71.00  -853469609.771
   71.50  -853511865.340
   72.00  -853553965.747
   72.50  -853595911.977
   73.00  -853637706.017
   73.50  -853679349.962
   74.00  -853720845.152
   74.50  -853762192.790
   75.00  -853803394.128
   75.50  -853844450.481
   76.00  -853885363.316
   76.50  -853926134.462
   77.00  -853966764.815
   77.50  -854007255.798
   78.00  -854047608.590
   78.50  -854087824.417
   79.00  -854127904.501
   79.50  -854167850.086
   80.00  -854207662.531
   80.50  -854247342.956
   81.00  -854286892.535
   81.50  -854326312.172
   82.00  -854365602.639
   82.50  -854404765.040
   83.00  -854443800.892
   83.50  -854482710.835
   84.00  -854521496.310
   84.50  -854560158.040
   85.00  -854598696.864
   85.50  -854637113.564
   86.00  -854675409.728
   86.50  -854713585.801
   87.00  -854751642.946
   87.50  -854789581.729
   88.00  -854827403.280
   88.50  -854865108.362
   89.00  -854902697.893
   89.50  -854940172.642
   90.00  -854977534.009
   90.50  -855014781.909
   91.00  -855051917.585
   91.50  -855088941.917
   92.00  -855125855.236
   92.50  -855162658.454
   93.00  -855199352.134
   93.50  -855235937.255
   94.00  -855272414.735
   94.50  -855308784.704
   95.00  -855345048.118
   95.50  -855381205.780
   96.00  -855417258.562
   96.50  -855453206.954
   97.00  -855489051.467
   97.50  -855524792.939
   98.00  -855560431.809
   98.50  -855595968.618
   99.00  -855631403.913
   99.50  -855666738.210
  100.00  -855701972.271
