Lk surface

Theta = 0.00220

Maximum at 4Ner(region) = 0.000 : Lk = -824089123.940



4Ner(region)   Pairwise Lk

    0.00  -824089123.940
    0.50  -824128535.545
    1.00  -824201650.106
    1.50  -824319086.831
    2.00  -824452379.134
    2.50  -824593919.788
    3.00  -824741082.353
    3.50  -824891542.587
    4.00  -825043293.368
    4.50  -825195112.817
    5.00  -825346474.687
    5.50  -825497179.363
    6.00  -825647167.093
    6.50  -825796325.970
    7.00  -825944529.770
    7.50  -826091627.275
    8.00  -826237468.234
    8.50  -826381937.171
    9.00  -826524949.135
    9.50  -826666454.360
   10.00  -826806417.830
   10.50  -826944844.607
   11.00  -827081755.602
   11.50  -827217184.040
   12.00  -827351162.895
   12.50  -827483729.972
   13.00  -827614917.230
   13.50  -827744758.553
   14.00  -827873298.409
   14.50  -828000574.569
   15.00  -828126613.563
   15.50  -828251452.795
   16.00  -828375126.809
   16.50  -828497670.299
   17.00  -828619119.684
   17.50  -828739501.980
   18.00  -828858848.901
   18.50  -828977182.929
   19.00  -829094531.296
   19.50  -829210920.786
   20.00  -829326373.189
   20.50  -829440901.254
   21.00  -829554523.217
   21.50  -829667257.359
   22.00  -829779119.511
   22.50  -829890119.837
   23.00  -830000272.900
   23.50  -830109593.636
   24.00  -830218092.710
   24.50  -830325781.740
   25.00  -830432671.174
   25.50  -830538773.196
   26.00  -830644101.474
   26.50  -830748668.328
   27.00  -830852486.231
   27.50  -830955566.603
   28.00  -831057920.540
   28.50  -831159560.617
   29.00  -831260497.136
   29.50  -831360741.115
   30.00  -831460302.847
   30.50  -831559195.932
   31.00  -831657430.044
   31.50  -831755014.592
   32.00  -831851957.861
   32.50  -831948268.488
   33.00  -832043957.516
   33.50  -832139033.166
   34.00  -832233504.536
   34.50  -832327379.825
   35.00  -832420666.696
   35.50  -832513373.420
   36.00  -832605508.726
   36.50  -832697079.193
   37.00  -832788091.559
   37.50  -832878555.029
   38.00  -832968476.791
   38.50  -833057862.519
   39.00  -833146720.270
   39.50  -833235055.236
   40.00  -833322875.260
   40.50  -833410186.905
   41.00  -833496997.927
   41.50  -833583314.884
   42.00  -833669141.994
   42.50  -833754486.519
   43.00  -833839355.190
   43.50  -833923753.262
   44.00  -834007687.496
   44.50  -834091162.344
   45.00  -834174184.128
   45.50  -834256758.504
   46.00  -834338891.218
   46.50  -834420585.516
   47.00  -834501847.097
   47.50  -834582682.006
   48.00  -834663094.431
   48.50  -834743088.960
   49.00  -834822668.941
   49.50  -834901839.874
   50.00  -834980606.375
   50.50  -835058972.063
   51.00  -835136941.250
   51.50  -835214517.348
   52.00  -835291704.609
   52.50  -835368506.550
   53.00  -835444926.750
   53.50  -835520969.852
   54.00  -835596638.829
   54.50  -835671936.918
   55.00  -835746868.117
   55.50  -835821435.128
   56.00  -835895641.272
   56.50  -835969490.581
   57.00  -836042986.237
   57.50  -836116132.190
   58.00  -836188931.473
   58.50  -836261387.369
   59.00  -836333502.710
   59.50  -836405281.119
   60.00  -836476725.984
   60.50  -836547840.610
   61.00  -836618628.393
   61.50  -836689092.824
   62.00  -836759237.213
   62.50  -836829064.636
   63.00  -836898578.866
   63.50  -836967782.804
   64.00  -837036678.910
   64.50  -837105271.149
   65.00  -837173563.385
   65.50  -837241558.183
   66.00  -837309258.806
   66.50  -837376669.054
   67.00  -837443792.024
   67.50  -837510630.802
   68.00  -837577187.943
   68.50  -837643466.751
   69.00  -837709469.772
   69.50  -837775198.989
   70.00  -837840658.776
   70.50  -837905851.785
   71.00  -837970781.125
   71.50  -838035448.916
   72.00  -838099857.643
   72.50  -838164010.780
   73.00  -838227910.538
   73.50  -838291559.053
   74.00  -838354959.200
   74.50  -838418113.510
   75.00  -838481024.160
   75.50  -838543692.918
   76.00  -838606122.107
   76.50  -838668314.381
   77.00  -838730271.933
   77.50  -838791996.780
   78.00  -838853491.071
   78.50  -838914757.101
   79.00  -838975796.001
   79.50  -839036610.508
   80.00  -839097202.754
   80.50  -839157574.132
   81.00  -839217726.710
   81.50  -839277661.761
   82.00  -839337381.310
   82.50  -839396887.735
   83.00  -839456182.207
   83.50  -839515266.287
   84.00  -839574141.934
   84.50  -839632810.559
   85.00  -839691274.032
   85.50  -839749533.556
   86.00  -839807590.540
   86.50  -839865446.857
   87.00  -839923104.062
   87.50  -839980563.364
   88.00  -840037826.469
   88.50  -840094894.844
   89.00  -840151769.670
   89.50  -840208452.422
   90.00  -840264944.494
   90.50  -840321247.306
   91.00  -840377361.911
   91.50  -840433289.972
   92.00  -840489032.311
   92.50  -840544590.704
   93.00  -840599966.056
   93.50  -840655159.770
   94.00  -840710173.010
   94.50  -840765007.486
   95.00  -840819664.062
   95.50  -840874144.187
   96.00  -840928449.216
   96.50  -840982580.327
   97.00  -841036538.669
   97.50  -841090325.140
   98.00  -841143941.079
   98.50  -841197387.821
   99.00  -841250666.392
   99.50  -841303777.791
  100.00  -841356723.148
