Lk surface

Theta = 0.00305

Maximum at 4Ner(region) = 1.000 : Lk = -1647046869.917



4Ner(region)   Pairwise Lk

    0.00  -1647585976.817
    0.50  -1647219192.429
    1.00  -1647046869.917
    1.50  -1647117300.131
    2.00  -1647283346.526
    2.50  -1647487343.265
    3.00  -1647704207.174
    3.50  -1647926073.717
    4.00  -1648151878.747
    4.50  -1648382227.071
    5.00  -1648617451.675
    5.50  -1648857123.197
    6.00  -1649100285.599
    6.50  -1649345719.514
    7.00  -1649592219.845
    7.50  -1649838760.831
    8.00  -1650084542.143
    8.50  -1650328946.161
    9.00  -1650571559.338
    9.50  -1650812096.537
   10.00  -1651050363.999
   10.50  -1651286267.892
   11.00  -1651519753.417
   11.50  -1651750805.459
   12.00  -1651979448.794
   12.50  -1652205729.928
   13.00  -1652429709.251
   13.50  -1652651450.651
   14.00  -1652871006.081
   14.50  -1653088426.161
   15.00  -1653303754.061
   15.50  -1653517022.268
   16.00  -1653728260.168
   16.50  -1653937494.529
   17.00  -1654144744.284
   17.50  -1654350037.249
   18.00  -1654553389.393
   18.50  -1654754836.127
   19.00  -1654954401.797
   19.50  -1655152117.075
   20.00  -1655348013.231
   20.50  -1655542120.380
   21.00  -1655734479.662
   21.50  -1655925126.965
   22.00  -1656114099.415
   22.50  -1656301429.805
   23.00  -1656487153.724
   23.50  -1656671307.809
   24.00  -1656853927.558
   24.50  -1657035048.721
   25.00  -1657214701.409
   25.50  -1657392918.514
   26.00  -1657569726.220
   26.50  -1657745157.981
   27.00  -1657919240.626
   27.50  -1658092003.368
   28.00  -1658263475.564
   28.50  -1658433682.578
   29.00  -1658602649.245
   29.50  -1658770400.075
   30.00  -1658936959.761
   30.50  -1659102356.575
   31.00  -1659266613.062
   31.50  -1659429749.713
   32.00  -1659591789.264
   32.50  -1659752756.132
   33.00  -1659912670.621
   33.50  -1660071552.940
   34.00  -1660229423.322
   34.50  -1660386301.287
   35.00  -1660542201.958
   35.50  -1660697143.013
   36.00  -1660851141.371
   36.50  -1661004213.101
   37.00  -1661156374.874
   37.50  -1661307638.563
   38.00  -1661458016.314
   38.50  -1661607522.742
   39.00  -1661756167.605
   39.50  -1661903964.975
   40.00  -1662050926.419
   40.50  -1662197062.755
   41.00  -1662342382.304
   41.50  -1662486897.387
   42.00  -1662630618.244
   42.50  -1662773554.487
   43.00  -1662915715.505
   43.50  -1663057111.047
   44.00  -1663197751.192
   44.50  -1663337642.970
   45.00  -1663476797.007
   45.50  -1663615221.836
   46.00  -1663752926.614
   46.50  -1663889920.281
   47.00  -1664026210.083
   47.50  -1664161804.802
   48.00  -1664296712.889
   48.50  -1664430943.729
   49.00  -1664564504.326
   49.50  -1664697403.471
   50.00  -1664829648.507
   50.50  -1664961248.683
   51.00  -1665092210.537
   51.50  -1665222542.329
   52.00  -1665352252.214
   52.50  -1665481346.705
   53.00  -1665609833.584
   53.50  -1665737720.637
   54.00  -1665865014.558
   54.50  -1665991722.040
   55.00  -1666117850.099
   55.50  -1666243405.107
   56.00  -1666368393.909
   56.50  -1666492823.263
   57.00  -1666616699.922
   57.50  -1666740030.148
   58.00  -1666862819.368
   58.50  -1666985074.390
   59.00  -1667106799.697
   59.50  -1667228001.848
   60.00  -1667348684.591
   60.50  -1667468853.985
   61.00  -1667588515.428
   61.50  -1667707673.333
   62.00  -1667826334.445
   62.50  -1667944503.443
   63.00  -1668062184.501
   63.50  -1668179382.149
   64.00  -1668296101.153
   64.50  -1668412345.960
   65.00  -1668528120.312
   65.50  -1668643428.055
   66.00  -1668758273.334
   66.50  -1668872660.165
   67.00  -1668986592.820
   67.50  -1669100075.018
   68.00  -1669213109.347
   68.50  -1669325700.183
   69.00  -1669437851.729
   69.50  -1669549567.522
   70.00  -1669660851.182
   70.50  -1669771705.027
   71.00  -1669882133.018
   71.50  -1669992138.177
   72.00  -1670101723.755
   72.50  -1670210892.544
   73.00  -1670319647.733
   73.50  -1670427992.518
   74.00  -1670535930.590
   74.50  -1670643464.590
   75.00  -1670750597.814
   75.50  -1670857332.340
   76.00  -1670963671.797
   76.50  -1671069619.120
   77.00  -1671175176.038
   77.50  -1671280346.644
   78.00  -1671385134.065
   78.50  -1671489540.473
   79.00  -1671593569.032
   79.50  -1671697222.116
   80.00  -1671800502.748
   80.50  -1671903413.667
   81.00  -1672005957.659
   81.50  -1672108137.457
   82.00  -1672209955.334
   82.50  -1672311414.717
   83.00  -1672412518.371
   83.50  -1672513269.023
   84.00  -1672613669.004
   84.50  -1672713721.099
   85.00  -1672813427.311
   85.50  -1672912790.718
   86.00  -1673011813.814
   86.50  -1673110499.308
   87.00  -1673208849.914
   87.50  -1673306868.073
   88.00  -1673404556.681
   88.50  -1673501917.889
   89.00  -1673598954.618
   89.50  -1673695668.966
   90.00  -1673792063.598
   90.50  -1673888140.720
   91.00  -1673983902.854
   91.50  -1674079352.254
   92.00  -1674174490.980
   92.50  -1674269321.873
   93.00  -1674363847.437
   93.50  -1674458069.787
   94.00  -1674551991.375
   94.50  -1674645614.641
   95.00  -1674738941.716
   95.50  -1674831974.773
   96.00  -1674924716.316
   96.50  -1675017168.310
   97.00  -1675109333.301
   97.50  -1675201213.166
   98.00  -1675292810.032
   98.50  -1675384126.592
   99.00  -1675475164.748
   99.50  -1675565926.238
  100.00  -1675656413.488
