Lk surface

Theta = 0.00005

Maximum at 4Ner(region) = 0.000 : Lk = -357334.233



4Ner(region)   Pairwise Lk

    0.00  -357334.233
    0.50  -357384.569
    1.00  -357435.159
    1.50  -357483.651
    2.00  -357525.994
    2.50  -357564.834
    3.00  -357602.158
    3.50  -357638.199
    4.00  -357672.837
    4.50  -357705.654
    5.00  -357736.758
    5.50  -357766.610
    6.00  -357795.368
    6.50  -357823.224
    7.00  -357850.125
    7.50  -357876.447
    8.00  -357901.821
    8.50  -357926.635
    9.00  -357950.798
    9.50  -357974.270
   10.00  -357997.222
   10.50  -358019.785
   11.00  -358042.207
   11.50  -358064.428
   12.00  -358086.597
   12.50  -358108.774
   13.00  -358130.923
   13.50  -358153.108
   14.00  -358175.223
   14.50  -358197.182
   15.00  -358219.083
   15.50  -358240.913
   16.00  -358262.521
   16.50  -358283.937
   17.00  -358305.212
   17.50  -358326.213
   18.00  -358346.935
   18.50  -358367.391
   19.00  -358387.593
   19.50  -358407.504
   20.00  -358427.118
   20.50  -358446.469
   21.00  -358465.530
   21.50  -358484.363
   22.00  -358503.003
   22.50  -358521.400
   23.00  -358539.601
   23.50  -358557.632
   24.00  -358575.477
   24.50  -358593.162
   25.00  -358610.704
   25.50  -358628.142
   26.00  -358645.410
   26.50  -358662.538
   27.00  -358679.537
   27.50  -358696.423
   28.00  -358713.163
   28.50  -358729.767
   29.00  -358746.255
   29.50  -358762.646
   30.00  -358778.902
   30.50  -358795.006
   31.00  -358811.002
   31.50  -358826.864
   32.00  -358842.613
   32.50  -358858.229
   33.00  -358873.752
   33.50  -358889.181
   34.00  -358904.500
   34.50  -358919.695
   35.00  -358934.771
   35.50  -358949.716
   36.00  -358964.557
   36.50  -358979.279
   37.00  -358993.893
   37.50  -359008.404
   38.00  -359022.801
   38.50  -359037.096
   39.00  -359051.277
   39.50  -359065.346
   40.00  -359079.318
   40.50  -359093.194
   41.00  -359106.982
   41.50  -359120.704
   42.00  -359134.349
   42.50  -359147.913
   43.00  -359161.377
   43.50  -359174.761
   44.00  -359188.078
   44.50  -359201.335
   45.00  -359214.517
   45.50  -359227.622
   46.00  -359240.669
   46.50  -359253.635
   47.00  -359266.543
   47.50  -359279.386
   48.00  -359292.172
   48.50  -359304.895
   49.00  -359317.563
   49.50  -359330.182
   50.00  -359342.738
   50.50  -359355.220
   51.00  -359367.637
   51.50  -359379.977
   52.00  -359392.257
   52.50  -359404.480
   53.00  -359416.651
   53.50  -359428.756
   54.00  -359440.802
   54.50  -359452.775
   55.00  -359464.694
   55.50  -359476.566
   56.00  -359488.376
   56.50  -359500.136
   57.00  -359511.842
   57.50  -359523.483
   58.00  -359535.070
   58.50  -359546.601
   59.00  -359558.081
   59.50  -359569.523
   60.00  -359580.914
   60.50  -359592.257
   61.00  -359603.561
   61.50  -359614.818
   62.00  -359626.032
   62.50  -359637.205
   63.00  -359648.337
   63.50  -359659.430
   64.00  -359670.475
   64.50  -359681.483
   65.00  -359692.454
   65.50  -359703.387
   66.00  -359714.284
   66.50  -359725.143
   67.00  -359735.974
   67.50  -359746.765
   68.00  -359757.515
   68.50  -359768.232
   69.00  -359778.915
   69.50  -359789.570
   70.00  -359800.189
   70.50  -359810.777
   71.00  -359821.331
   71.50  -359831.853
   72.00  -359842.338
   72.50  -359852.781
   73.00  -359863.190
   73.50  -359873.565
   74.00  -359883.904
   74.50  -359894.207
   75.00  -359904.489
   75.50  -359914.736
   76.00  -359924.953
   76.50  -359935.133
   77.00  -359945.282
   77.50  -359955.397
   78.00  -359965.470
   78.50  -359975.509
   79.00  -359985.509
   79.50  -359995.476
   80.00  -360005.408
   80.50  -360015.306
   81.00  -360025.161
   81.50  -360034.983
   82.00  -360044.772
   82.50  -360054.522
   83.00  -360064.235
   83.50  -360073.913
   84.00  -360083.554
   84.50  -360093.159
   85.00  -360102.734
   85.50  -360112.275
   86.00  -360121.785
   86.50  -360131.263
   87.00  -360140.709
   87.50  -360150.116
   88.00  -360159.487
   88.50  -360168.825
   89.00  -360178.125
   89.50  -360187.392
   90.00  -360196.631
   90.50  -360205.836
   91.00  -360215.008
   91.50  -360224.149
   92.00  -360233.259
   92.50  -360242.341
   93.00  -360251.396
   93.50  -360260.418
   94.00  -360269.408
   94.50  -360278.369
   95.00  -360287.301
   95.50  -360296.200
   96.00  -360305.075
   96.50  -360313.921
   97.00  -360322.738
   97.50  -360331.526
   98.00  -360340.290
   98.50  -360349.022
   99.00  -360357.727
   99.50  -360366.404
  100.00  -360375.051
