Lk surface

Theta = 0.00005

Maximum at 4Ner(region) = 0.000 : Lk = -420589.997



4Ner(region)   Pairwise Lk

    0.00  -420589.997
    0.50  -420687.893
    1.00  -420793.574
    1.50  -420900.692
    2.00  -420995.953
    2.50  -421078.864
    3.00  -421152.942
    3.50  -421221.991
    4.00  -421287.110
    4.50  -421349.762
    5.00  -421410.766
    5.50  -421470.725
    6.00  -421529.068
    6.50  -421586.163
    7.00  -421642.174
    7.50  -421697.484
    8.00  -421751.824
    8.50  -421805.078
    9.00  -421857.364
    9.50  -421908.586
   10.00  -421958.794
   10.50  -422008.045
   11.00  -422056.649
   11.50  -422104.576
   12.00  -422151.767
   12.50  -422198.547
   13.00  -422244.805
   13.50  -422290.572
   14.00  -422335.742
   14.50  -422380.477
   15.00  -422424.689
   15.50  -422468.431
   16.00  -422511.757
   16.50  -422554.703
   17.00  -422597.271
   17.50  -422639.365
   18.00  -422680.953
   18.50  -422722.116
   19.00  -422762.842
   19.50  -422803.128
   20.00  -422843.006
   20.50  -422882.522
   21.00  -422921.550
   21.50  -422960.154
   22.00  -422998.307
   22.50  -423036.018
   23.00  -423073.399
   23.50  -423110.381
   24.00  -423146.999
   24.50  -423183.266
   25.00  -423219.150
   25.50  -423254.657
   26.00  -423289.839
   26.50  -423324.635
   27.00  -423359.073
   27.50  -423393.224
   28.00  -423427.038
   28.50  -423460.566
   29.00  -423493.759
   29.50  -423526.649
   30.00  -423559.243
   30.50  -423591.582
   31.00  -423623.628
   31.50  -423655.400
   32.00  -423686.876
   32.50  -423718.130
   33.00  -423749.169
   33.50  -423780.010
   34.00  -423810.643
   34.50  -423841.041
   35.00  -423871.200
   35.50  -423901.131
   36.00  -423930.865
   36.50  -423960.420
   37.00  -423989.779
   37.50  -424018.951
   38.00  -424047.956
   38.50  -424076.779
   39.00  -424105.431
   39.50  -424133.894
   40.00  -424162.176
   40.50  -424190.252
   41.00  -424218.172
   41.50  -424245.928
   42.00  -424273.530
   42.50  -424300.944
   43.00  -424328.190
   43.50  -424355.249
   44.00  -424382.171
   44.50  -424408.938
   45.00  -424435.538
   45.50  -424461.988
   46.00  -424488.305
   46.50  -424514.482
   47.00  -424540.528
   47.50  -424566.427
   48.00  -424592.156
   48.50  -424617.742
   49.00  -424643.192
   49.50  -424668.510
   50.00  -424693.707
   50.50  -424718.771
   51.00  -424743.678
   51.50  -424768.451
   52.00  -424793.111
   52.50  -424817.651
   53.00  -424842.062
   53.50  -424866.352
   54.00  -424890.521
   54.50  -424914.572
   55.00  -424938.511
   55.50  -424962.318
   56.00  -424986.003
   56.50  -425009.563
   57.00  -425033.020
   57.50  -425056.368
   58.00  -425079.622
   58.50  -425102.771
   59.00  -425125.799
   59.50  -425148.710
   60.00  -425171.517
   60.50  -425194.220
   61.00  -425216.811
   61.50  -425239.316
   62.00  -425261.723
   62.50  -425284.022
   63.00  -425306.229
   63.50  -425328.332
   64.00  -425350.324
   64.50  -425372.229
   65.00  -425394.044
   65.50  -425415.759
   66.00  -425437.388
   66.50  -425458.925
   67.00  -425480.362
   67.50  -425501.717
   68.00  -425522.978
   68.50  -425544.155
   69.00  -425565.242
   69.50  -425586.239
   70.00  -425607.142
   70.50  -425627.960
   71.00  -425648.700
   71.50  -425669.359
   72.00  -425689.935
   72.50  -425710.423
   73.00  -425730.837
   73.50  -425751.172
   74.00  -425771.421
   74.50  -425791.569
   75.00  -425811.643
   75.50  -425831.645
   76.00  -425851.572
   76.50  -425871.419
   77.00  -425891.194
   77.50  -425910.889
   78.00  -425930.509
   78.50  -425950.055
   79.00  -425969.527
   79.50  -425988.917
   80.00  -426008.237
   80.50  -426027.475
   81.00  -426046.642
   81.50  -426065.738
   82.00  -426084.770
   82.50  -426103.732
   83.00  -426122.617
   83.50  -426141.433
   84.00  -426160.185
   84.50  -426178.860
   85.00  -426197.465
   85.50  -426216.007
   86.00  -426234.474
   86.50  -426252.874
   87.00  -426271.211
   87.50  -426289.479
   88.00  -426307.689
   88.50  -426325.827
   89.00  -426343.897
   89.50  -426361.903
   90.00  -426379.850
   90.50  -426397.732
   91.00  -426415.547
   91.50  -426433.301
   92.00  -426450.988
   92.50  -426468.614
   93.00  -426486.176
   93.50  -426503.679
   94.00  -426521.125
   94.50  -426538.511
   95.00  -426555.829
   95.50  -426573.079
   96.00  -426590.270
   96.50  -426607.407
   97.00  -426624.491
   97.50  -426641.517
   98.00  -426658.483
   98.50  -426675.389
   99.00  -426692.236
   99.50  -426709.031
  100.00  -426725.771
