Lk surface

Theta = 0.00005

Maximum at 4Ner(region) = 1.000 : Lk = -288170.633



4Ner(region)   Pairwise Lk

    0.00  -288200.357
    0.50  -288175.589
    1.00  -288170.633
    1.50  -288200.789
    2.00  -288232.866
    2.50  -288260.945
    3.00  -288286.155
    3.50  -288311.312
    4.00  -288336.254
    4.50  -288359.963
    5.00  -288382.813
    5.50  -288404.740
    6.00  -288425.968
    6.50  -288446.940
    7.00  -288467.955
    7.50  -288488.845
    8.00  -288509.667
    8.50  -288530.150
    9.00  -288550.525
    9.50  -288570.579
   10.00  -288590.286
   10.50  -288609.753
   11.00  -288629.142
   11.50  -288648.076
   12.00  -288666.724
   12.50  -288685.069
   13.00  -288703.021
   13.50  -288720.784
   14.00  -288738.224
   14.50  -288755.437
   15.00  -288772.382
   15.50  -288789.168
   16.00  -288805.843
   16.50  -288822.386
   17.00  -288838.804
   17.50  -288855.155
   18.00  -288871.374
   18.50  -288887.578
   19.00  -288903.709
   19.50  -288919.781
   20.00  -288935.809
   20.50  -288951.792
   21.00  -288967.738
   21.50  -288983.562
   22.00  -288999.210
   22.50  -289014.864
   23.00  -289030.472
   23.50  -289045.992
   24.00  -289061.401
   24.50  -289076.729
   25.00  -289091.835
   25.50  -289106.798
   26.00  -289121.630
   26.50  -289136.259
   27.00  -289150.733
   27.50  -289165.045
   28.00  -289179.197
   28.50  -289193.202
   29.00  -289207.097
   29.50  -289220.833
   30.00  -289234.418
   30.50  -289247.893
   31.00  -289261.250
   31.50  -289274.514
   32.00  -289287.621
   32.50  -289300.602
   33.00  -289313.472
   33.50  -289326.233
   34.00  -289338.900
   34.50  -289351.492
   35.00  -289363.999
   35.50  -289376.419
   36.00  -289388.749
   36.50  -289400.989
   37.00  -289413.170
   37.50  -289425.248
   38.00  -289437.237
   38.50  -289449.161
   39.00  -289460.998
   39.50  -289472.764
   40.00  -289484.443
   40.50  -289496.056
   41.00  -289507.586
   41.50  -289519.054
   42.00  -289530.442
   42.50  -289541.738
   43.00  -289552.970
   43.50  -289564.135
   44.00  -289575.235
   44.50  -289586.263
   45.00  -289597.240
   45.50  -289608.111
   46.00  -289618.922
   46.50  -289629.674
   47.00  -289640.353
   47.50  -289650.926
   48.00  -289661.427
   48.50  -289671.859
   49.00  -289682.233
   49.50  -289692.551
   50.00  -289702.797
   50.50  -289712.998
   51.00  -289723.132
   51.50  -289733.220
   52.00  -289743.261
   52.50  -289753.246
   53.00  -289763.164
   53.50  -289773.030
   54.00  -289782.858
   54.50  -289792.632
   55.00  -289802.341
   55.50  -289812.014
   56.00  -289821.651
   56.50  -289831.237
   57.00  -289840.781
   57.50  -289850.276
   58.00  -289859.731
   58.50  -289869.150
   59.00  -289878.528
   59.50  -289887.877
   60.00  -289897.177
   60.50  -289906.447
   61.00  -289915.681
   61.50  -289924.881
   62.00  -289934.050
   62.50  -289943.185
   63.00  -289952.283
   63.50  -289961.349
   64.00  -289970.387
   64.50  -289979.391
   65.00  -289988.364
   65.50  -289997.313
   66.00  -290006.239
   66.50  -290015.133
   67.00  -290024.002
   67.50  -290032.843
   68.00  -290041.646
   68.50  -290050.433
   69.00  -290059.189
   69.50  -290067.908
   70.00  -290076.601
   70.50  -290085.262
   71.00  -290093.892
   71.50  -290102.490
   72.00  -290111.062
   72.50  -290119.602
   73.00  -290128.113
   73.50  -290136.598
   74.00  -290145.054
   74.50  -290153.486
   75.00  -290161.893
   75.50  -290170.267
   76.00  -290178.604
   76.50  -290186.914
   77.00  -290195.195
   77.50  -290203.442
   78.00  -290211.666
   78.50  -290219.862
   79.00  -290228.038
   79.50  -290236.184
   80.00  -290244.302
   80.50  -290252.393
   81.00  -290260.458
   81.50  -290268.498
   82.00  -290276.507
   82.50  -290284.489
   83.00  -290292.443
   83.50  -290300.370
   84.00  -290308.271
   84.50  -290316.153
   85.00  -290324.013
   85.50  -290331.849
   86.00  -290339.657
   86.50  -290347.431
   87.00  -290355.181
   87.50  -290362.909
   88.00  -290370.612
   88.50  -290378.285
   89.00  -290385.932
   89.50  -290393.555
   90.00  -290401.155
   90.50  -290408.735
   91.00  -290416.294
   91.50  -290423.828
   92.00  -290431.331
   92.50  -290438.815
   93.00  -290446.277
   93.50  -290453.718
   94.00  -290461.128
   94.50  -290468.512
   95.00  -290475.877
   95.50  -290483.218
   96.00  -290490.537
   96.50  -290497.824
   97.00  -290505.085
   97.50  -290512.325
   98.00  -290519.537
   98.50  -290526.727
   99.00  -290533.896
   99.50  -290541.045
  100.00  -290548.161
