Lk surface

Theta = 0.00007

Maximum at 4Ner(region) = 1.000 : Lk = -607461.577



4Ner(region)   Pairwise Lk

    0.00  -607477.846
    0.50  -607469.275
    1.00  -607461.577
    1.50  -607470.540
    2.00  -607490.560
    2.50  -607510.787
    3.00  -607528.779
    3.50  -607546.249
    4.00  -607566.847
    4.50  -607591.193
    5.00  -607617.924
    5.50  -607645.988
    6.00  -607675.427
    6.50  -607705.698
    7.00  -607736.160
    7.50  -607766.851
    8.00  -607797.006
    8.50  -607826.856
    9.00  -607856.403
    9.50  -607885.475
   10.00  -607914.232
   10.50  -607942.397
   11.00  -607969.688
   11.50  -607996.556
   12.00  -608022.792
   12.50  -608048.564
   13.00  -608074.056
   13.50  -608099.008
   14.00  -608123.615
   14.50  -608147.677
   15.00  -608171.290
   15.50  -608194.543
   16.00  -608217.346
   16.50  -608239.643
   17.00  -608261.746
   17.50  -608283.549
   18.00  -608304.967
   18.50  -608326.029
   19.00  -608346.708
   19.50  -608367.058
   20.00  -608387.124
   20.50  -608407.005
   21.00  -608426.713
   21.50  -608446.288
   22.00  -608465.687
   22.50  -608484.854
   23.00  -608503.910
   23.50  -608522.886
   24.00  -608541.821
   24.50  -608560.674
   25.00  -608579.444
   25.50  -608598.120
   26.00  -608616.807
   26.50  -608635.465
   27.00  -608654.042
   27.50  -608672.530
   28.00  -608690.979
   28.50  -608709.368
   29.00  -608727.676
   29.50  -608745.925
   30.00  -608764.101
   30.50  -608782.232
   31.00  -608800.310
   31.50  -608818.260
   32.00  -608836.133
   32.50  -608853.943
   33.00  -608871.639
   33.50  -608889.238
   34.00  -608906.731
   34.50  -608924.142
   35.00  -608941.455
   35.50  -608958.647
   36.00  -608975.740
   36.50  -608992.731
   37.00  -609009.597
   37.50  -609026.393
   38.00  -609043.104
   38.50  -609059.724
   39.00  -609076.261
   39.50  -609092.686
   40.00  -609108.999
   40.50  -609125.231
   41.00  -609141.358
   41.50  -609157.404
   42.00  -609173.348
   42.50  -609189.182
   43.00  -609204.924
   43.50  -609220.598
   44.00  -609236.183
   44.50  -609251.706
   45.00  -609267.141
   45.50  -609282.494
   46.00  -609297.749
   46.50  -609312.910
   47.00  -609327.975
   47.50  -609342.958
   48.00  -609357.865
   48.50  -609372.700
   49.00  -609387.460
   49.50  -609402.164
   50.00  -609416.798
   50.50  -609431.348
   51.00  -609445.828
   51.50  -609460.215
   52.00  -609474.505
   52.50  -609488.704
   53.00  -609502.843
   53.50  -609516.908
   54.00  -609530.923
   54.50  -609544.867
   55.00  -609558.738
   55.50  -609572.545
   56.00  -609586.270
   56.50  -609599.908
   57.00  -609613.483
   57.50  -609626.974
   58.00  -609640.406
   58.50  -609653.770
   59.00  -609667.086
   59.50  -609680.362
   60.00  -609693.565
   60.50  -609706.690
   61.00  -609719.738
   61.50  -609732.723
   62.00  -609745.646
   62.50  -609758.496
   63.00  -609771.289
   63.50  -609784.039
   64.00  -609796.726
   64.50  -609809.352
   65.00  -609821.931
   65.50  -609834.452
   66.00  -609846.918
   66.50  -609859.325
   67.00  -609871.696
   67.50  -609884.026
   68.00  -609896.300
   68.50  -609908.527
   69.00  -609920.716
   69.50  -609932.860
   70.00  -609944.946
   70.50  -609956.972
   71.00  -609968.955
   71.50  -609980.893
   72.00  -609992.787
   72.50  -610004.635
   73.00  -610016.445
   73.50  -610028.218
   74.00  -610039.942
   74.50  -610051.618
   75.00  -610063.255
   75.50  -610074.856
   76.00  -610086.419
   76.50  -610097.941
   77.00  -610109.428
   77.50  -610120.868
   78.00  -610132.270
   78.50  -610143.626
   79.00  -610154.950
   79.50  -610166.231
   80.00  -610177.473
   80.50  -610188.670
   81.00  -610199.828
   81.50  -610210.949
   82.00  -610222.038
   82.50  -610233.086
   83.00  -610244.089
   83.50  -610255.054
   84.00  -610265.984
   84.50  -610276.880
   85.00  -610287.740
   85.50  -610298.570
   86.00  -610309.370
   86.50  -610320.136
   87.00  -610330.868
   87.50  -610341.564
   88.00  -610352.228
   88.50  -610362.854
   89.00  -610373.449
   89.50  -610384.015
   90.00  -610394.559
   90.50  -610405.076
   91.00  -610415.561
   91.50  -610426.016
   92.00  -610436.443
   92.50  -610446.840
   93.00  -610457.212
   93.50  -610467.548
   94.00  -610477.853
   94.50  -610488.132
   95.00  -610498.380
   95.50  -610508.598
   96.00  -610518.797
   96.50  -610528.975
   97.00  -610539.123
   97.50  -610549.243
   98.00  -610559.338
   98.50  -610569.402
   99.00  -610579.447
   99.50  -610589.475
  100.00  -610599.478
