Lk surface

Theta = 0.00008

Maximum at 4Ner(region) = 0.000 : Lk = -1148166.109



4Ner(region)   Pairwise Lk

    0.00  -1148166.109
    0.50  -1148461.291
    1.00  -1148809.526
    1.50  -1149271.241
    2.00  -1149784.239
    2.50  -1150304.478
    3.00  -1150813.054
    3.50  -1151304.224
    4.00  -1151778.216
    4.50  -1152237.851
    5.00  -1152685.029
    5.50  -1153121.917
    6.00  -1153550.117
    6.50  -1153969.806
    7.00  -1154381.374
    7.50  -1154784.738
    8.00  -1155180.330
    8.50  -1155568.152
    9.00  -1155949.180
    9.50  -1156323.231
   10.00  -1156690.849
   10.50  -1157052.538
   11.00  -1157408.158
   11.50  -1157758.236
   12.00  -1158102.920
   12.50  -1158442.034
   13.00  -1158776.381
   13.50  -1159105.684
   14.00  -1159430.476
   14.50  -1159750.900
   15.00  -1160066.979
   15.50  -1160378.932
   16.00  -1160686.865
   16.50  -1160990.889
   17.00  -1161291.314
   17.50  -1161588.282
   18.00  -1161881.976
   18.50  -1162172.244
   19.00  -1162459.283
   19.50  -1162743.270
   20.00  -1163024.193
   20.50  -1163302.231
   21.00  -1163577.370
   21.50  -1163849.476
   22.00  -1164118.959
   22.50  -1164385.686
   23.00  -1164649.764
   23.50  -1164911.368
   24.00  -1165170.630
   24.50  -1165427.424
   25.00  -1165681.700
   25.50  -1165933.723
   26.00  -1166183.510
   26.50  -1166431.118
   27.00  -1166676.491
   27.50  -1166919.790
   28.00  -1167161.017
   28.50  -1167400.267
   29.00  -1167637.495
   29.50  -1167872.875
   30.00  -1168106.391
   30.50  -1168338.013
   31.00  -1168567.932
   31.50  -1168796.030
   32.00  -1169022.348
   32.50  -1169247.028
   33.00  -1169470.014
   33.50  -1169691.385
   34.00  -1169911.137
   34.50  -1170129.386
   35.00  -1170346.186
   35.50  -1170561.471
   36.00  -1170775.203
   36.50  -1170987.492
   37.00  -1171198.447
   37.50  -1171408.010
   38.00  -1171616.315
   38.50  -1171823.301
   39.00  -1172028.979
   39.50  -1172233.401
   40.00  -1172436.538
   40.50  -1172638.428
   41.00  -1172839.143
   41.50  -1173038.663
   42.00  -1173237.024
   42.50  -1173434.245
   43.00  -1173630.347
   43.50  -1173825.287
   44.00  -1174019.138
   44.50  -1174211.893
   45.00  -1174403.532
   45.50  -1174594.102
   46.00  -1174783.671
   46.50  -1174972.158
   47.00  -1175159.590
   47.50  -1175345.982
   48.00  -1175531.363
   48.50  -1175715.740
   49.00  -1175899.114
   49.50  -1176081.484
   50.00  -1176262.904
   50.50  -1176443.389
   51.00  -1176622.915
   51.50  -1176801.476
   52.00  -1176979.119
   52.50  -1177155.869
   53.00  -1177331.718
   53.50  -1177506.702
   54.00  -1177680.763
   54.50  -1177853.982
   55.00  -1178026.344
   55.50  -1178197.854
   56.00  -1178368.527
   56.50  -1178538.395
   57.00  -1178707.472
   57.50  -1178875.761
   58.00  -1179043.246
   58.50  -1179209.941
   59.00  -1179375.866
   59.50  -1179541.052
   60.00  -1179705.459
   60.50  -1179869.145
   61.00  -1180032.104
   61.50  -1180194.351
   62.00  -1180355.907
   62.50  -1180516.741
   63.00  -1180676.832
   63.50  -1180836.244
   64.00  -1180994.981
   64.50  -1181153.038
   65.00  -1181310.426
   65.50  -1181467.132
   66.00  -1181623.173
   66.50  -1181778.601
   67.00  -1181933.390
   67.50  -1182087.543
   68.00  -1182241.069
   68.50  -1182393.989
   69.00  -1182546.297
   69.50  -1182697.996
   70.00  -1182849.072
   70.50  -1182999.558
   71.00  -1183149.457
   71.50  -1183298.779
   72.00  -1183447.528
   72.50  -1183595.708
   73.00  -1183743.326
   73.50  -1183890.353
   74.00  -1184036.812
   74.50  -1184182.678
   75.00  -1184328.003
   75.50  -1184472.779
   76.00  -1184617.004
   76.50  -1184760.696
   77.00  -1184903.844
   77.50  -1185046.488
   78.00  -1185188.623
   78.50  -1185330.227
   79.00  -1185471.308
   79.50  -1185611.866
   80.00  -1185751.918
   80.50  -1185891.481
   81.00  -1186030.525
   81.50  -1186169.068
   82.00  -1186307.111
   82.50  -1186444.671
   83.00  -1186581.734
   83.50  -1186718.320
   84.00  -1186854.430
   84.50  -1186990.061
   85.00  -1187125.210
   85.50  -1187259.900
   86.00  -1187394.124
   86.50  -1187527.850
   87.00  -1187661.113
   87.50  -1187793.924
   88.00  -1187926.280
   88.50  -1188058.186
   89.00  -1188189.654
   89.50  -1188320.661
   90.00  -1188451.247
   90.50  -1188581.385
   91.00  -1188711.097
   91.50  -1188840.396
   92.00  -1188969.284
   92.50  -1189097.735
   93.00  -1189225.769
   93.50  -1189353.380
   94.00  -1189480.588
   94.50  -1189607.370
   95.00  -1189733.755
   95.50  -1189859.755
   96.00  -1189985.349
   96.50  -1190110.561
   97.00  -1190235.388
   97.50  -1190359.826
   98.00  -1190483.866
   98.50  -1190607.510
   99.00  -1190730.764
   99.50  -1190853.663
  100.00  -1190976.193
