Lk surface

Theta = 0.00006

Maximum at 4Ner(region) = 0.000 : Lk = -454480.941



4Ner(region)   Pairwise Lk

    0.00  -454480.941
    0.50  -454561.445
    1.00  -454620.686
    1.50  -454645.630
    2.00  -454660.425
    2.50  -454676.245
    3.00  -454696.368
    3.50  -454722.341
    4.00  -454751.743
    4.50  -454783.868
    5.00  -454818.046
    5.50  -454853.275
    6.00  -454888.714
    6.50  -454924.064
    7.00  -454959.285
    7.50  -454994.097
    8.00  -455028.230
    8.50  -455061.548
    9.00  -455094.078
    9.50  -455125.796
   10.00  -455156.714
   10.50  -455186.812
   11.00  -455216.084
   11.50  -455244.775
   12.00  -455272.822
   12.50  -455300.205
   13.00  -455327.033
   13.50  -455353.328
   14.00  -455379.159
   14.50  -455404.543
   15.00  -455429.537
   15.50  -455454.094
   16.00  -455478.273
   16.50  -455502.233
   17.00  -455525.858
   17.50  -455549.231
   18.00  -455572.302
   18.50  -455595.120
   19.00  -455617.784
   19.50  -455640.147
   20.00  -455662.343
   20.50  -455684.332
   21.00  -455706.156
   21.50  -455727.864
   22.00  -455749.425
   22.50  -455770.842
   23.00  -455792.062
   23.50  -455813.099
   24.00  -455833.961
   24.50  -455854.684
   25.00  -455875.212
   25.50  -455895.569
   26.00  -455915.790
   26.50  -455935.835
   27.00  -455955.723
   27.50  -455975.441
   28.00  -455995.006
   28.50  -456014.438
   29.00  -456033.750
   29.50  -456052.868
   30.00  -456071.848
   30.50  -456090.665
   31.00  -456109.370
   31.50  -456127.949
   32.00  -456146.402
   32.50  -456164.710
   33.00  -456182.862
   33.50  -456200.897
   34.00  -456218.803
   34.50  -456236.553
   35.00  -456254.201
   35.50  -456271.732
   36.00  -456289.161
   36.50  -456306.470
   37.00  -456323.664
   37.50  -456340.751
   38.00  -456357.773
   38.50  -456374.711
   39.00  -456391.561
   39.50  -456408.309
   40.00  -456424.963
   40.50  -456441.527
   41.00  -456457.996
   41.50  -456474.411
   42.00  -456490.740
   42.50  -456506.971
   43.00  -456523.116
   43.50  -456539.186
   44.00  -456555.179
   44.50  -456571.089
   45.00  -456586.929
   45.50  -456602.707
   46.00  -456618.397
   46.50  -456634.008
   47.00  -456649.544
   47.50  -456665.010
   48.00  -456680.405
   48.50  -456695.701
   49.00  -456710.940
   49.50  -456726.094
   50.00  -456741.161
   50.50  -456756.152
   51.00  -456771.070
   51.50  -456785.912
   52.00  -456800.678
   52.50  -456815.377
   53.00  -456829.984
   53.50  -456844.521
   54.00  -456858.982
   54.50  -456873.372
   55.00  -456887.683
   55.50  -456901.920
   56.00  -456916.077
   56.50  -456930.156
   57.00  -456944.164
   57.50  -456958.105
   58.00  -456971.963
   58.50  -456985.758
   59.00  -456999.494
   59.50  -457013.153
   60.00  -457026.746
   60.50  -457040.270
   61.00  -457053.721
   61.50  -457067.105
   62.00  -457080.417
   62.50  -457093.659
   63.00  -457106.844
   63.50  -457119.972
   64.00  -457133.050
   64.50  -457146.059
   65.00  -457158.994
   65.50  -457171.878
   66.00  -457184.695
   66.50  -457197.454
   67.00  -457210.157
   67.50  -457222.820
   68.00  -457235.418
   68.50  -457247.959
   69.00  -457260.446
   69.50  -457272.870
   70.00  -457285.248
   70.50  -457297.571
   71.00  -457309.842
   71.50  -457322.067
   72.00  -457334.249
   72.50  -457346.384
   73.00  -457358.466
   73.50  -457370.495
   74.00  -457382.471
   74.50  -457394.401
   75.00  -457406.285
   75.50  -457418.132
   76.00  -457429.924
   76.50  -457441.673
   77.00  -457453.376
   77.50  -457465.035
   78.00  -457476.641
   78.50  -457488.207
   79.00  -457499.728
   79.50  -457511.198
   80.00  -457522.633
   80.50  -457534.028
   81.00  -457545.385
   81.50  -457556.699
   82.00  -457567.971
   82.50  -457579.201
   83.00  -457590.386
   83.50  -457601.535
   84.00  -457612.640
   84.50  -457623.707
   85.00  -457634.735
   85.50  -457645.717
   86.00  -457656.656
   86.50  -457667.561
   87.00  -457678.420
   87.50  -457689.250
   88.00  -457700.036
   88.50  -457710.784
   89.00  -457721.490
   89.50  -457732.168
   90.00  -457742.815
   90.50  -457753.430
   91.00  -457764.012
   91.50  -457774.563
   92.00  -457785.083
   92.50  -457795.564
   93.00  -457806.007
   93.50  -457816.414
   94.00  -457826.789
   94.50  -457837.133
   95.00  -457847.441
   95.50  -457857.716
   96.00  -457867.959
   96.50  -457878.174
   97.00  -457888.363
   97.50  -457898.522
   98.00  -457908.654
   98.50  -457918.759
   99.00  -457928.834
   99.50  -457938.876
  100.00  -457948.885
