Lk surface

Theta = 0.00284

Maximum at 4Ner(region) = 0.000 : Lk = -950181105.687



4Ner(region)   Pairwise Lk

    0.00  -950181105.687
    0.50  -950186415.350
    1.00  -950212492.868
    1.50  -950263543.679
    2.00  -950341357.914
    2.50  -950436959.707
    3.00  -950544608.362
    3.50  -950658455.826
    4.00  -950773039.777
    4.50  -950885109.188
    5.00  -950993568.240
    5.50  -951098658.757
    6.00  -951201105.353
    6.50  -951301521.915
    7.00  -951400081.838
    7.50  -951496709.847
    8.00  -951591227.319
    8.50  -951683548.334
    9.00  -951773697.768
    9.50  -951861838.789
   10.00  -951948201.844
   10.50  -952033071.972
   11.00  -952116703.270
   11.50  -952199310.910
   12.00  -952281052.944
   12.50  -952362041.123
   13.00  -952442330.015
   13.50  -952521942.113
   14.00  -952600878.107
   14.50  -952679118.054
   15.00  -952756625.740
   15.50  -952833379.921
   16.00  -952909348.506
   16.50  -952984505.829
   17.00  -953058836.099
   17.50  -953132340.643
   18.00  -953205016.028
   18.50  -953276882.106
   19.00  -953347952.523
   19.50  -953418253.035
   20.00  -953487805.901
   20.50  -953556638.287
   21.00  -953624774.791
   21.50  -953692238.911
   22.00  -953759051.025
   22.50  -953825233.281
   23.00  -953890801.160
   23.50  -953955767.483
   24.00  -954020143.043
   24.50  -954083935.715
   25.00  -954147155.837
   25.50  -954209812.031
   26.00  -954271910.092
   26.50  -954333458.677
   27.00  -954394467.239
   27.50  -954454940.879
   28.00  -954514891.146
   28.50  -954574328.513
   29.00  -954633265.877
   29.50  -954691714.902
   30.00  -954749686.117
   30.50  -954807190.925
   31.00  -954864240.724
   31.50  -954920850.269
   32.00  -954977029.137
   32.50  -955032791.031
   33.00  -955088146.175
   33.50  -955143105.007
   34.00  -955197676.765
   34.50  -955251871.123
   35.00  -955305699.406
   35.50  -955359167.116
   36.00  -955412284.173
   36.50  -955465057.557
   37.00  -955517493.499
   37.50  -955569598.699
   38.00  -955621377.648
   38.50  -955672837.512
   39.00  -955723984.454
   39.50  -955774821.998
   40.00  -955825353.384
   40.50  -955875582.234
   41.00  -955925512.884
   41.50  -955975148.403
   42.00  -956024492.220
   42.50  -956073547.241
   43.00  -956122315.355
   43.50  -956170799.496
   44.00  -956219001.615
   44.50  -956266922.119
   45.00  -956314564.539
   45.50  -956361930.997
   46.00  -956409022.175
   46.50  -956455839.837
   47.00  -956502386.324
   47.50  -956548663.540
   48.00  -956594672.750
   48.50  -956640416.243
   49.00  -956685894.498
   49.50  -956731109.746
   50.00  -956776063.580
   50.50  -956820758.423
   51.00  -956865195.571
   51.50  -956909378.651
   52.00  -956953309.848
   52.50  -956996991.147
   53.00  -957040423.974
   53.50  -957083611.534
   54.00  -957126556.133
   54.50  -957169260.539
   55.00  -957211727.854
   55.50  -957253960.556
   56.00  -957295962.527
   56.50  -957337736.461
   57.00  -957379285.115
   57.50  -957420610.603
   58.00  -957461716.857
   58.50  -957502606.776
   59.00  -957543283.410
   59.50  -957583749.226
   60.00  -957624007.299
   60.50  -957664060.367
   61.00  -957703910.778
   61.50  -957743562.307
   62.00  -957783017.473
   62.50  -957822278.343
   63.00  -957861349.158
   63.50  -957900231.597
   64.00  -957938928.771
   64.50  -957977442.748
   65.00  -958015775.850
   65.50  -958053930.645
   66.00  -958091909.931
   66.50  -958129716.511
   67.00  -958167352.673
   67.50  -958204820.462
   68.00  -958242122.265
   68.50  -958279260.491
   69.00  -958316238.026
   69.50  -958353056.530
   70.00  -958389718.012
   70.50  -958426225.135
   71.00  -958462579.977
   71.50  -958498784.729
   72.00  -958534842.058
   72.50  -958570753.751
   73.00  -958606522.275
   73.50  -958642148.896
   74.00  -958677635.245
   74.50  -958712984.540
   75.00  -958748198.539
   75.50  -958783279.674
   76.00  -958818229.130
   76.50  -958853048.837
   77.00  -958887740.860
   77.50  -958922306.877
   78.00  -958956748.405
   78.50  -958991067.089
   79.00  -959025264.333
   79.50  -959059341.743
   80.00  -959093300.815
   80.50  -959127143.117
   81.00  -959160870.073
   81.50  -959194483.212
   82.00  -959227983.339
   82.50  -959261372.109
   83.00  -959294650.141
   83.50  -959327818.901
   84.00  -959360879.507
   84.50  -959393833.147
   85.00  -959426680.392
   85.50  -959459422.280
   86.00  -959492059.991
   86.50  -959524593.890
   87.00  -959557025.308
   87.50  -959589355.042
   88.00  -959621583.930
   88.50  -959653713.026
   89.00  -959685742.849
   89.50  -959717674.343
   90.00  -959749507.985
   90.50  -959781245.312
   91.00  -959812886.477
   91.50  -959844432.151
   92.00  -959875883.283
   92.50  -959907240.658
   93.00  -959938505.335
   93.50  -959969677.923
   94.00  -960000758.903
   94.50  -960031749.036
   95.00  -960062649.438
   95.50  -960093460.224
   96.00  -960124182.137
   96.50  -960154816.354
   97.00  -960185363.539
   97.50  -960215824.461
   98.00  -960246199.556
   98.50  -960276489.815
   99.00  -960306695.744
   99.50  -960336818.242
  100.00  -960366858.161
