Lk surface

Theta = 0.00006

Maximum at 4Ner(region) = 0.000 : Lk = -579235.400



4Ner(region)   Pairwise Lk

    0.00  -579235.400
    0.50  -579280.411
    1.00  -579327.860
    1.50  -579388.214
    2.00  -579458.109
    2.50  -579527.581
    3.00  -579594.235
    3.50  -579658.771
    4.00  -579722.568
    4.50  -579786.141
    5.00  -579849.982
    5.50  -579913.449
    6.00  -579976.029
    6.50  -580038.026
    7.00  -580099.501
    7.50  -580160.241
    8.00  -580219.959
    8.50  -580278.650
    9.00  -580336.580
    9.50  -580393.861
   10.00  -580450.205
   10.50  -580505.898
   11.00  -580561.174
   11.50  -580616.045
   12.00  -580670.265
   12.50  -580723.846
   13.00  -580776.865
   13.50  -580829.361
   14.00  -580881.324
   14.50  -580932.697
   15.00  -580983.503
   15.50  -581033.713
   16.00  -581083.270
   16.50  -581132.241
   17.00  -581180.642
   17.50  -581228.578
   18.00  -581276.072
   18.50  -581323.064
   19.00  -581369.551
   19.50  -581415.554
   20.00  -581461.220
   20.50  -581506.499
   21.00  -581551.360
   21.50  -581595.858
   22.00  -581639.982
   22.50  -581683.761
   23.00  -581727.154
   23.50  -581770.238
   24.00  -581813.028
   24.50  -581855.489
   25.00  -581897.615
   25.50  -581939.386
   26.00  -581980.839
   26.50  -582022.046
   27.00  -582062.939
   27.50  -582103.468
   28.00  -582143.710
   28.50  -582183.660
   29.00  -582223.293
   29.50  -582262.594
   30.00  -582301.633
   30.50  -582340.380
   31.00  -582378.851
   31.50  -582417.070
   32.00  -582455.040
   32.50  -582492.758
   33.00  -582530.193
   33.50  -582567.372
   34.00  -582604.229
   34.50  -582640.818
   35.00  -582677.157
   35.50  -582713.256
   36.00  -582749.106
   36.50  -582784.716
   37.00  -582820.039
   37.50  -582855.125
   38.00  -582889.974
   38.50  -582924.607
   39.00  -582959.021
   39.50  -582993.195
   40.00  -583027.131
   40.50  -583060.845
   41.00  -583094.316
   41.50  -583127.590
   42.00  -583160.641
   42.50  -583193.486
   43.00  -583226.146
   43.50  -583258.605
   44.00  -583290.853
   44.50  -583322.906
   45.00  -583354.767
   45.50  -583386.467
   46.00  -583417.992
   46.50  -583449.351
   47.00  -583480.531
   47.50  -583511.528
   48.00  -583542.357
   48.50  -583573.013
   49.00  -583603.511
   49.50  -583633.823
   50.00  -583663.972
   50.50  -583693.952
   51.00  -583723.763
   51.50  -583753.423
   52.00  -583782.923
   52.50  -583812.278
   53.00  -583841.480
   53.50  -583870.536
   54.00  -583899.443
   54.50  -583928.212
   55.00  -583956.847
   55.50  -583985.358
   56.00  -584013.732
   56.50  -584041.956
   57.00  -584070.050
   57.50  -584098.011
   58.00  -584125.852
   58.50  -584153.550
   59.00  -584181.127
   59.50  -584208.570
   60.00  -584235.873
   60.50  -584263.055
   61.00  -584290.105
   61.50  -584317.025
   62.00  -584343.820
   62.50  -584370.498
   63.00  -584397.042
   63.50  -584423.460
   64.00  -584449.755
   64.50  -584475.938
   65.00  -584501.998
   65.50  -584527.939
   66.00  -584553.761
   66.50  -584579.466
   67.00  -584605.054
   67.50  -584630.526
   68.00  -584655.885
   68.50  -584681.132
   69.00  -584706.269
   69.50  -584731.309
   70.00  -584756.236
   70.50  -584781.051
   71.00  -584805.765
   71.50  -584830.377
   72.00  -584854.895
   72.50  -584879.314
   73.00  -584903.636
   73.50  -584927.858
   74.00  -584951.979
   74.50  -584976.001
   75.00  -584999.925
   75.50  -585023.757
   76.00  -585047.496
   76.50  -585071.134
   77.00  -585094.673
   77.50  -585118.119
   78.00  -585141.489
   78.50  -585164.768
   79.00  -585187.960
   79.50  -585211.072
   80.00  -585234.104
   80.50  -585257.050
   81.00  -585279.914
   81.50  -585302.692
   82.00  -585325.394
   82.50  -585348.009
   83.00  -585370.539
   83.50  -585392.990
   84.00  -585415.363
   84.50  -585437.665
   85.00  -585459.889
   85.50  -585482.029
   86.00  -585504.087
   86.50  -585526.069
   87.00  -585547.976
   87.50  -585569.807
   88.00  -585591.560
   88.50  -585613.249
   89.00  -585634.861
   89.50  -585656.394
   90.00  -585677.860
   90.50  -585699.255
   91.00  -585720.574
   91.50  -585741.813
   92.00  -585762.982
   92.50  -585784.078
   93.00  -585805.089
   93.50  -585826.026
   94.00  -585846.900
   94.50  -585867.701
   95.00  -585888.432
   95.50  -585909.097
   96.00  -585929.692
   96.50  -585950.221
   97.00  -585970.678
   97.50  -585991.072
   98.00  -586011.394
   98.50  -586031.645
   99.00  -586051.830
   99.50  -586071.953
  100.00  -586092.011
