Lk surface

Theta = 0.00006

Maximum at 4Ner(region) = 0.000 : Lk = -507215.771



4Ner(region)   Pairwise Lk

    0.00  -507215.771
    0.50  -507371.078
    1.00  -507509.972
    1.50  -507624.179
    2.00  -507737.886
    2.50  -507853.280
    3.00  -507966.505
    3.50  -508074.743
    4.00  -508176.172
    4.50  -508271.767
    5.00  -508363.580
    5.50  -508453.093
    6.00  -508541.096
    6.50  -508628.837
    7.00  -508716.151
    7.50  -508803.088
    8.00  -508889.969
    8.50  -508976.091
    9.00  -509061.339
    9.50  -509145.285
   10.00  -509227.815
   10.50  -509309.067
   11.00  -509388.892
   11.50  -509467.147
   12.00  -509543.809
   12.50  -509619.248
   13.00  -509693.451
   13.50  -509766.248
   14.00  -509837.912
   14.50  -509908.491
   15.00  -509978.040
   15.50  -510046.459
   16.00  -510113.999
   16.50  -510180.610
   17.00  -510246.304
   17.50  -510310.940
   18.00  -510374.785
   18.50  -510437.884
   19.00  -510500.108
   19.50  -510561.477
   20.00  -510622.151
   20.50  -510682.073
   21.00  -510741.294
   21.50  -510799.837
   22.00  -510857.782
   22.50  -510915.239
   23.00  -510972.025
   23.50  -511028.200
   24.00  -511083.843
   24.50  -511139.006
   25.00  -511193.673
   25.50  -511247.801
   26.00  -511301.463
   26.50  -511354.652
   27.00  -511407.377
   27.50  -511459.687
   28.00  -511511.553
   28.50  -511562.961
   29.00  -511613.908
   29.50  -511664.456
   30.00  -511714.605
   30.50  -511764.361
   31.00  -511813.671
   31.50  -511862.575
   32.00  -511911.128
   32.50  -511959.290
   33.00  -512007.123
   33.50  -512054.608
   34.00  -512101.718
   34.50  -512148.495
   35.00  -512194.934
   35.50  -512241.007
   36.00  -512286.741
   36.50  -512332.189
   37.00  -512377.280
   37.50  -512422.031
   38.00  -512466.461
   38.50  -512510.600
   39.00  -512554.424
   39.50  -512597.903
   40.00  -512641.085
   40.50  -512683.969
   41.00  -512726.555
   41.50  -512768.873
   42.00  -512810.912
   42.50  -512852.652
   43.00  -512894.092
   43.50  -512935.250
   44.00  -512976.115
   44.50  -513016.711
   45.00  -513057.045
   45.50  -513097.178
   46.00  -513137.051
   46.50  -513176.676
   47.00  -513216.029
   47.50  -513255.157
   48.00  -513294.053
   48.50  -513332.723
   49.00  -513371.176
   49.50  -513409.410
   50.00  -513447.399
   50.50  -513485.137
   51.00  -513522.680
   51.50  -513560.048
   52.00  -513597.220
   52.50  -513634.174
   53.00  -513670.936
   53.50  -513707.481
   54.00  -513743.840
   54.50  -513780.024
   55.00  -513816.015
   55.50  -513851.814
   56.00  -513887.427
   56.50  -513922.884
   57.00  -513958.190
   57.50  -513993.316
   58.00  -514028.286
   58.50  -514063.092
   59.00  -514097.735
   59.50  -514132.216
   60.00  -514166.543
   60.50  -514200.727
   61.00  -514234.744
   61.50  -514268.619
   62.00  -514302.356
   62.50  -514335.942
   63.00  -514369.392
   63.50  -514402.734
   64.00  -514435.936
   64.50  -514469.003
   65.00  -514501.937
   65.50  -514534.734
   66.00  -514567.411
   66.50  -514599.957
   67.00  -514632.379
   67.50  -514664.682
   68.00  -514696.863
   68.50  -514728.931
   69.00  -514760.866
   69.50  -514792.679
   70.00  -514824.378
   70.50  -514855.961
   71.00  -514887.449
   71.50  -514918.846
   72.00  -514950.118
   72.50  -514981.272
   73.00  -515012.313
   73.50  -515043.245
   74.00  -515074.066
   74.50  -515104.788
   75.00  -515135.408
   75.50  -515165.909
   76.00  -515196.297
   76.50  -515226.585
   77.00  -515256.764
   77.50  -515286.823
   78.00  -515316.785
   78.50  -515346.629
   79.00  -515376.375
   79.50  -515406.025
   80.00  -515435.572
   80.50  -515465.018
   81.00  -515494.352
   81.50  -515523.593
   82.00  -515552.733
   82.50  -515581.767
   83.00  -515610.710
   83.50  -515639.554
   84.00  -515668.301
   84.50  -515696.946
   85.00  -515725.504
   85.50  -515753.956
   86.00  -515782.312
   86.50  -515810.576
   87.00  -515838.748
   87.50  -515866.828
   88.00  -515894.823
   88.50  -515922.727
   89.00  -515950.543
   89.50  -515978.276
   90.00  -516005.907
   90.50  -516033.444
   91.00  -516060.895
   91.50  -516088.262
   92.00  -516115.540
   92.50  -516142.730
   93.00  -516169.833
   93.50  -516196.850
   94.00  -516223.783
   94.50  -516250.645
   95.00  -516277.427
   95.50  -516304.128
   96.00  -516330.749
   96.50  -516357.284
   97.00  -516383.740
   97.50  -516410.115
   98.00  -516436.409
   98.50  -516462.629
   99.00  -516488.771
   99.50  -516514.840
  100.00  -516540.829
