Lk surface

Theta = 0.00005

Maximum at 4Ner(region) = 0.000 : Lk = -388846.941



4Ner(region)   Pairwise Lk

    0.00  -388846.941
    0.50  -388850.681
    1.00  -388862.553
    1.50  -388894.825
    2.00  -388929.035
    2.50  -388958.814
    3.00  -388983.756
    3.50  -389005.803
    4.00  -389025.392
    4.50  -389043.290
    5.00  -389060.408
    5.50  -389076.767
    6.00  -389092.998
    6.50  -389108.837
    7.00  -389124.337
    7.50  -389139.600
    8.00  -389154.453
    8.50  -389168.950
    9.00  -389182.970
    9.50  -389196.563
   10.00  -389209.785
   10.50  -389222.440
   11.00  -389234.867
   11.50  -389246.975
   12.00  -389258.949
   12.50  -389270.753
   13.00  -389282.467
   13.50  -389293.863
   14.00  -389304.957
   14.50  -389315.921
   15.00  -389326.791
   15.50  -389337.464
   16.00  -389347.962
   16.50  -389358.389
   17.00  -389368.708
   17.50  -389378.891
   18.00  -389389.053
   18.50  -389399.159
   19.00  -389409.178
   19.50  -389419.130
   20.00  -389428.963
   20.50  -389438.729
   21.00  -389448.405
   21.50  -389458.061
   22.00  -389467.646
   22.50  -389477.232
   23.00  -389486.791
   23.50  -389496.295
   24.00  -389505.723
   24.50  -389515.088
   25.00  -389524.405
   25.50  -389533.675
   26.00  -389542.903
   26.50  -389552.079
   27.00  -389561.184
   27.50  -389570.250
   28.00  -389579.279
   28.50  -389588.254
   29.00  -389597.142
   29.50  -389605.985
   30.00  -389614.811
   30.50  -389623.582
   31.00  -389632.304
   31.50  -389640.944
   32.00  -389649.487
   32.50  -389657.988
   33.00  -389666.465
   33.50  -389674.900
   34.00  -389683.288
   34.50  -389691.612
   35.00  -389699.902
   35.50  -389708.153
   36.00  -389716.364
   36.50  -389724.499
   37.00  -389732.618
   37.50  -389740.693
   38.00  -389748.713
   38.50  -389756.711
   39.00  -389764.632
   39.50  -389772.516
   40.00  -389780.342
   40.50  -389788.139
   41.00  -389795.897
   41.50  -389803.618
   42.00  -389811.262
   42.50  -389818.865
   43.00  -389826.430
   43.50  -389833.960
   44.00  -389841.425
   44.50  -389848.852
   45.00  -389856.208
   45.50  -389863.498
   46.00  -389870.724
   46.50  -389877.882
   47.00  -389884.997
   47.50  -389892.043
   48.00  -389899.058
   48.50  -389906.009
   49.00  -389912.907
   49.50  -389919.765
   50.00  -389926.563
   50.50  -389933.303
   51.00  -389940.009
   51.50  -389946.673
   52.00  -389953.284
   52.50  -389959.858
   53.00  -389966.409
   53.50  -389972.902
   54.00  -389979.348
   54.50  -389985.749
   55.00  -389992.116
   55.50  -389998.468
   56.00  -390004.771
   56.50  -390011.045
   57.00  -390017.282
   57.50  -390023.495
   58.00  -390029.681
   58.50  -390035.839
   59.00  -390041.959
   59.50  -390048.047
   60.00  -390054.123
   60.50  -390060.167
   61.00  -390066.186
   61.50  -390072.192
   62.00  -390078.187
   62.50  -390084.157
   63.00  -390090.078
   63.50  -390095.982
   64.00  -390101.876
   64.50  -390107.751
   65.00  -390113.601
   65.50  -390119.420
   66.00  -390125.202
   66.50  -390130.972
   67.00  -390136.728
   67.50  -390142.451
   68.00  -390148.147
   68.50  -390153.824
   69.00  -390159.474
   69.50  -390165.103
   70.00  -390170.718
   70.50  -390176.304
   71.00  -390181.871
   71.50  -390187.435
   72.00  -390192.977
   72.50  -390198.502
   73.00  -390204.002
   73.50  -390209.484
   74.00  -390214.948
   74.50  -390220.402
   75.00  -390225.841
   75.50  -390231.258
   76.00  -390236.656
   76.50  -390242.041
   77.00  -390247.413
   77.50  -390252.772
   78.00  -390258.108
   78.50  -390263.433
   79.00  -390268.746
   79.50  -390274.044
   80.00  -390279.334
   80.50  -390284.610
   81.00  -390289.869
   81.50  -390295.112
   82.00  -390300.341
   82.50  -390305.558
   83.00  -390310.755
   83.50  -390315.936
   84.00  -390321.102
   84.50  -390326.257
   85.00  -390331.396
   85.50  -390336.524
   86.00  -390341.630
   86.50  -390346.730
   87.00  -390351.812
   87.50  -390356.870
   88.00  -390361.911
   88.50  -390366.936
   89.00  -390371.945
   89.50  -390376.936
   90.00  -390381.904
   90.50  -390386.864
   91.00  -390391.808
   91.50  -390396.745
   92.00  -390401.659
   92.50  -390406.547
   93.00  -390411.417
   93.50  -390416.275
   94.00  -390421.111
   94.50  -390425.930
   95.00  -390430.737
   95.50  -390435.524
   96.00  -390440.297
   96.50  -390445.048
   97.00  -390449.781
   97.50  -390454.490
   98.00  -390459.178
   98.50  -390463.853
   99.00  -390468.507
   99.50  -390473.134
  100.00  -390477.744
