Lk surface

Theta = 0.00004

Maximum at 4Ner(region) = 1.000 : Lk = -239446.868



4Ner(region)   Pairwise Lk

    0.00  -239450.668
    0.50  -239447.559
    1.00  -239446.868
    1.50  -239457.823
    2.00  -239470.220
    2.50  -239481.000
    3.00  -239490.832
    3.50  -239500.390
    4.00  -239509.485
    4.50  -239518.936
    5.00  -239529.027
    5.50  -239539.575
    6.00  -239550.895
    6.50  -239562.344
    7.00  -239574.282
    7.50  -239586.507
    8.00  -239598.870
    8.50  -239611.302
    9.00  -239623.765
    9.50  -239636.227
   10.00  -239648.772
   10.50  -239661.420
   11.00  -239674.149
   11.50  -239686.981
   12.00  -239699.795
   12.50  -239712.553
   13.00  -239725.241
   13.50  -239737.849
   14.00  -239750.396
   14.50  -239762.910
   15.00  -239775.334
   15.50  -239787.654
   16.00  -239799.809
   16.50  -239811.814
   17.00  -239823.626
   17.50  -239835.273
   18.00  -239846.732
   18.50  -239858.032
   19.00  -239869.203
   19.50  -239880.203
   20.00  -239891.014
   20.50  -239901.762
   21.00  -239912.420
   21.50  -239922.999
   22.00  -239933.499
   22.50  -239943.916
   23.00  -239954.225
   23.50  -239964.442
   24.00  -239974.578
   24.50  -239984.643
   25.00  -239994.632
   25.50  -240004.549
   26.00  -240014.403
   26.50  -240024.146
   27.00  -240033.821
   27.50  -240043.360
   28.00  -240052.758
   28.50  -240062.043
   29.00  -240071.236
   29.50  -240080.339
   30.00  -240089.319
   30.50  -240098.191
   31.00  -240106.965
   31.50  -240115.672
   32.00  -240124.290
   32.50  -240132.810
   33.00  -240141.250
   33.50  -240149.626
   34.00  -240157.926
   34.50  -240166.194
   35.00  -240174.406
   35.50  -240182.554
   36.00  -240190.647
   36.50  -240198.704
   37.00  -240206.718
   37.50  -240214.692
   38.00  -240222.626
   38.50  -240230.520
   39.00  -240238.367
   39.50  -240246.183
   40.00  -240253.978
   40.50  -240261.724
   41.00  -240269.425
   41.50  -240277.087
   42.00  -240284.727
   42.50  -240292.319
   43.00  -240299.864
   43.50  -240307.353
   44.00  -240314.812
   44.50  -240322.236
   45.00  -240329.606
   45.50  -240336.935
   46.00  -240344.217
   46.50  -240351.454
   47.00  -240358.641
   47.50  -240365.770
   48.00  -240372.850
   48.50  -240379.885
   49.00  -240386.867
   49.50  -240393.799
   50.00  -240400.678
   50.50  -240407.521
   51.00  -240414.317
   51.50  -240421.055
   52.00  -240427.757
   52.50  -240434.403
   53.00  -240440.995
   53.50  -240447.542
   54.00  -240454.042
   54.50  -240460.498
   55.00  -240466.913
   55.50  -240473.272
   56.00  -240479.594
   56.50  -240485.883
   57.00  -240492.129
   57.50  -240498.341
   58.00  -240504.512
   58.50  -240510.653
   59.00  -240516.769
   59.50  -240522.851
   60.00  -240528.900
   60.50  -240534.919
   61.00  -240540.910
   61.50  -240546.863
   62.00  -240552.795
   62.50  -240558.700
   63.00  -240564.574
   63.50  -240570.420
   64.00  -240576.243
   64.50  -240582.041
   65.00  -240587.823
   65.50  -240593.580
   66.00  -240599.318
   66.50  -240605.037
   67.00  -240610.732
   67.50  -240616.400
   68.00  -240622.053
   68.50  -240627.683
   69.00  -240633.289
   69.50  -240638.878
   70.00  -240644.451
   70.50  -240650.012
   71.00  -240655.559
   71.50  -240661.088
   72.00  -240666.593
   72.50  -240672.083
   73.00  -240677.548
   73.50  -240682.993
   74.00  -240688.425
   74.50  -240693.835
   75.00  -240699.224
   75.50  -240704.596
   76.00  -240709.950
   76.50  -240715.285
   77.00  -240720.606
   77.50  -240725.911
   78.00  -240731.192
   78.50  -240736.449
   79.00  -240741.688
   79.50  -240746.907
   80.00  -240752.108
   80.50  -240757.290
   81.00  -240762.451
   81.50  -240767.590
   82.00  -240772.708
   82.50  -240777.814
   83.00  -240782.902
   83.50  -240787.973
   84.00  -240793.023
   84.50  -240798.052
   85.00  -240803.065
   85.50  -240808.059
   86.00  -240813.037
   86.50  -240818.002
   87.00  -240822.950
   87.50  -240827.882
   88.00  -240832.794
   88.50  -240837.692
   89.00  -240842.570
   89.50  -240847.429
   90.00  -240852.278
   90.50  -240857.110
   91.00  -240861.929
   91.50  -240866.730
   92.00  -240871.518
   92.50  -240876.289
   93.00  -240881.047
   93.50  -240885.792
   94.00  -240890.526
   94.50  -240895.250
   95.00  -240899.962
   95.50  -240904.663
   96.00  -240909.350
   96.50  -240914.022
   97.00  -240918.675
   97.50  -240923.315
   98.00  -240927.945
   98.50  -240932.571
   99.00  -240937.186
   99.50  -240941.789
  100.00  -240946.378
