Lk surface

Theta = 0.00003

Maximum at 4Ner(region) = 0.000 : Lk = -134458.246



4Ner(region)   Pairwise Lk

    0.00  -134458.246
    0.50  -134475.703
    1.00  -134490.292
    1.50  -134500.626
    2.00  -134506.904
    2.50  -134513.507
    3.00  -134521.229
    3.50  -134529.074
    4.00  -134535.466
    4.50  -134540.343
    5.00  -134543.797
    5.50  -134546.480
    6.00  -134548.851
    6.50  -134551.310
    7.00  -134553.837
    7.50  -134556.502
    8.00  -134559.391
    8.50  -134562.395
    9.00  -134565.556
    9.50  -134568.735
   10.00  -134572.002
   10.50  -134575.337
   11.00  -134578.710
   11.50  -134582.147
   12.00  -134585.653
   12.50  -134589.205
   13.00  -134592.711
   13.50  -134596.277
   14.00  -134599.797
   14.50  -134603.241
   15.00  -134606.566
   15.50  -134609.783
   16.00  -134612.926
   16.50  -134615.987
   17.00  -134618.930
   17.50  -134621.744
   18.00  -134624.438
   18.50  -134627.050
   19.00  -134629.556
   19.50  -134631.966
   20.00  -134634.265
   20.50  -134636.466
   21.00  -134638.601
   21.50  -134640.671
   22.00  -134642.693
   22.50  -134644.668
   23.00  -134646.574
   23.50  -134648.427
   24.00  -134650.274
   24.50  -134652.117
   25.00  -134653.927
   25.50  -134655.739
   26.00  -134657.544
   26.50  -134659.337
   27.00  -134661.133
   27.50  -134662.944
   28.00  -134664.747
   28.50  -134666.578
   29.00  -134668.436
   29.50  -134670.308
   30.00  -134672.194
   30.50  -134674.098
   31.00  -134676.015
   31.50  -134677.919
   32.00  -134679.845
   32.50  -134681.771
   33.00  -134683.706
   33.50  -134685.624
   34.00  -134687.541
   34.50  -134689.461
   35.00  -134691.368
   35.50  -134693.257
   36.00  -134695.137
   36.50  -134697.001
   37.00  -134698.867
   37.50  -134700.737
   38.00  -134702.607
   38.50  -134704.477
   39.00  -134706.340
   39.50  -134708.194
   40.00  -134710.033
   40.50  -134711.872
   41.00  -134713.685
   41.50  -134715.493
   42.00  -134717.285
   42.50  -134719.061
   43.00  -134720.816
   43.50  -134722.560
   44.00  -134724.298
   44.50  -134726.024
   45.00  -134727.732
   45.50  -134729.418
   46.00  -134731.089
   46.50  -134732.748
   47.00  -134734.390
   47.50  -134736.012
   48.00  -134737.622
   48.50  -134739.212
   49.00  -134740.794
   49.50  -134742.360
   50.00  -134743.920
   50.50  -134745.464
   51.00  -134746.990
   51.50  -134748.494
   52.00  -134749.986
   52.50  -134751.479
   53.00  -134752.966
   53.50  -134754.449
   54.00  -134755.925
   54.50  -134757.389
   55.00  -134758.841
   55.50  -134760.295
   56.00  -134761.731
   56.50  -134763.167
   57.00  -134764.600
   57.50  -134766.039
   58.00  -134767.475
   58.50  -134768.904
   59.00  -134770.332
   59.50  -134771.757
   60.00  -134773.176
   60.50  -134774.591
   61.00  -134776.004
   61.50  -134777.412
   62.00  -134778.815
   62.50  -134780.220
   63.00  -134781.621
   63.50  -134783.012
   64.00  -134784.397
   64.50  -134785.785
   65.00  -134787.170
   65.50  -134788.550
   66.00  -134789.931
   66.50  -134791.310
   67.00  -134792.687
   67.50  -134794.058
   68.00  -134795.423
   68.50  -134796.783
   69.00  -134798.136
   69.50  -134799.482
   70.00  -134800.821
   70.50  -134802.156
   71.00  -134803.483
   71.50  -134804.803
   72.00  -134806.112
   72.50  -134807.418
   73.00  -134808.717
   73.50  -134810.007
   74.00  -134811.292
   74.50  -134812.569
   75.00  -134813.839
   75.50  -134815.102
   76.00  -134816.353
   76.50  -134817.592
   77.00  -134818.827
   77.50  -134820.049
   78.00  -134821.266
   78.50  -134822.477
   79.00  -134823.678
   79.50  -134824.870
   80.00  -134826.053
   80.50  -134827.227
   81.00  -134828.397
   81.50  -134829.559
   82.00  -134830.710
   82.50  -134831.854
   83.00  -134832.991
   83.50  -134834.123
   84.00  -134835.247
   84.50  -134836.367
   85.00  -134837.479
   85.50  -134838.585
   86.00  -134839.688
   86.50  -134840.781
   87.00  -134841.864
   87.50  -134842.939
   88.00  -134844.009
   88.50  -134845.075
   89.00  -134846.135
   89.50  -134847.195
   90.00  -134848.251
   90.50  -134849.304
   91.00  -134850.355
   91.50  -134851.404
   92.00  -134852.447
   92.50  -134853.487
   93.00  -134854.523
   93.50  -134855.554
   94.00  -134856.579
   94.50  -134857.599
   95.00  -134858.616
   95.50  -134859.633
   96.00  -134860.647
   96.50  -134861.658
   97.00  -134862.668
   97.50  -134863.675
   98.00  -134864.680
   98.50  -134865.681
   99.00  -134866.677
   99.50  -134867.673
  100.00  -134868.667
