Lk surface

Theta = 0.00050

Maximum at 4Ner(region) = 1.000 : Lk = -18506664.229



4Ner(region)   Pairwise Lk

    0.00  -18526466.350
    0.50  -18514125.925
    1.00  -18506664.229
    1.50  -18507401.905
    2.00  -18511468.938
    2.50  -18515993.165
    3.00  -18519800.203
    3.50  -18522644.045
    4.00  -18524735.361
    4.50  -18526310.758
    5.00  -18527561.805
    5.50  -18528617.202
    6.00  -18529529.967
    6.50  -18530328.317
    7.00  -18531022.194
    7.50  -18531615.694
    8.00  -18532109.857
    8.50  -18532505.202
    9.00  -18532809.282
    9.50  -18533031.778
   10.00  -18533186.601
   10.50  -18533289.228
   11.00  -18533355.591
   11.50  -18533400.439
   12.00  -18533434.388
   12.50  -18533467.006
   13.00  -18533504.144
   13.50  -18533550.021
   14.00  -18533604.200
   14.50  -18533665.821
   15.00  -18533734.210
   15.50  -18533806.435
   16.00  -18533878.683
   16.50  -18533948.659
   17.00  -18534013.908
   17.50  -18534072.919
   18.00  -18534124.162
   18.50  -18534167.214
   19.00  -18534200.794
   19.50  -18534226.168
   20.00  -18534243.805
   20.50  -18534254.213
   21.00  -18534258.605
   21.50  -18534258.038
   22.00  -18534253.341
   22.50  -18534246.101
   23.00  -18534237.160
   23.50  -18534228.027
   24.00  -18534219.353
   24.50  -18534212.386
   25.00  -18534207.659
   25.50  -18534205.748
   26.00  -18534207.233
   26.50  -18534212.531
   27.00  -18534221.842
   27.50  -18534235.282
   28.00  -18534253.337
   28.50  -18534275.698
   29.00  -18534302.005
   29.50  -18534332.096
   30.00  -18534365.781
   30.50  -18534402.362
   31.00  -18534442.211
   31.50  -18534484.631
   32.00  -18534529.528
   32.50  -18534576.362
   33.00  -18534624.868
   33.50  -18534674.534
   34.00  -18534725.122
   34.50  -18534776.190
   35.00  -18534827.622
   35.50  -18534879.331
   36.00  -18534930.835
   36.50  -18534982.146
   37.00  -18535033.233
   37.50  -18535083.805
   38.00  -18535133.871
   38.50  -18535183.301
   39.00  -18535231.931
   39.50  -18535279.844
   40.00  -18535327.084
   40.50  -18535373.599
   41.00  -18535419.575
   41.50  -18535465.027
   42.00  -18535509.802
   42.50  -18535554.061
   43.00  -18535597.777
   43.50  -18535641.133
   44.00  -18535684.066
   44.50  -18535726.668
   45.00  -18535768.811
   45.50  -18535810.650
   46.00  -18535851.979
   46.50  -18535893.125
   47.00  -18535934.132
   47.50  -18535974.803
   48.00  -18536015.052
   48.50  -18536055.078
   49.00  -18536094.653
   49.50  -18536133.957
   50.00  -18536172.821
   50.50  -18536211.350
   51.00  -18536249.412
   51.50  -18536286.908
   52.00  -18536324.070
   52.50  -18536360.666
   53.00  -18536396.685
   53.50  -18536432.246
   54.00  -18536467.258
   54.50  -18536501.704
   55.00  -18536535.662
   55.50  -18536569.064
   56.00  -18536601.893
   56.50  -18536634.059
   57.00  -18536665.643
   57.50  -18536696.726
   58.00  -18536727.300
   58.50  -18536757.062
   59.00  -18536786.119
   59.50  -18536814.585
   60.00  -18536842.516
   60.50  -18536869.871
   61.00  -18536896.718
   61.50  -18536923.091
   62.00  -18536948.834
   62.50  -18536974.105
   63.00  -18536998.930
   63.50  -18537023.257
   64.00  -18537047.074
   64.50  -18537070.429
   65.00  -18537093.332
   65.50  -18537115.951
   66.00  -18537138.247
   66.50  -18537160.265
   67.00  -18537181.963
   67.50  -18537203.362
   68.00  -18537224.511
   68.50  -18537245.497
   69.00  -18537266.244
   69.50  -18537286.770
   70.00  -18537307.230
   70.50  -18537327.619
   71.00  -18537347.891
   71.50  -18537368.274
   72.00  -18537388.661
   72.50  -18537409.022
   73.00  -18537429.458
   73.50  -18537449.916
   74.00  -18537470.465
   74.50  -18537491.129
   75.00  -18537511.891
   75.50  -18537532.863
   76.00  -18537553.941
   76.50  -18537575.151
   77.00  -18537596.640
   77.50  -18537618.367
   78.00  -18537640.316
   78.50  -18537662.557
   79.00  -18537685.077
   79.50  -18537707.848
   80.00  -18537730.883
   80.50  -18537754.124
   81.00  -18537777.638
   81.50  -18537801.475
   82.00  -18537825.619
   82.50  -18537850.025
   83.00  -18537874.717
   83.50  -18537899.703
   84.00  -18537924.982
   84.50  -18537950.599
   85.00  -18537976.416
   85.50  -18538002.523
   86.00  -18538028.959
   86.50  -18538055.664
   87.00  -18538082.594
   87.50  -18538109.870
   88.00  -18538137.448
   88.50  -18538165.239
   89.00  -18538193.324
   89.50  -18538221.640
   90.00  -18538250.206
   90.50  -18538278.998
   91.00  -18538308.043
   91.50  -18538337.294
   92.00  -18538366.716
   92.50  -18538396.416
   93.00  -18538426.299
   93.50  -18538456.373
   94.00  -18538486.604
   94.50  -18538516.998
   95.00  -18538547.519
   95.50  -18538578.172
   96.00  -18538608.996
   96.50  -18538639.938
   97.00  -18538671.015
   97.50  -18538702.232
   98.00  -18538733.565
   98.50  -18538764.951
   99.00  -18538796.410
   99.50  -18538827.928
  100.00  -18538859.436
