Lk surface

Theta = 0.00054

Maximum at 4Ner(region) = 2.000 : Lk = -22072744.928



4Ner(region)   Pairwise Lk

    0.00  -22082056.321
    0.50  -22079941.451
    1.00  -22076933.666
    1.50  -22073860.291
    2.00  -22072744.928
    2.50  -22073052.790
    3.00  -22073845.669
    3.50  -22074475.237
    4.00  -22074732.793
    4.50  -22074671.092
    5.00  -22074435.887
    5.50  -22074152.202
    6.00  -22073902.317
    6.50  -22073720.202
    7.00  -22073608.220
    7.50  -22073548.557
    8.00  -22073521.299
    8.50  -22073509.654
    9.00  -22073507.447
    9.50  -22073508.700
   10.00  -22073512.413
   10.50  -22073519.619
   11.00  -22073534.144
   11.50  -22073555.606
   12.00  -22073582.997
   12.50  -22073616.388
   13.00  -22073655.477
   13.50  -22073699.992
   14.00  -22073749.747
   14.50  -22073804.626
   15.00  -22073864.017
   15.50  -22073928.488
   16.00  -22073999.562
   16.50  -22074076.253
   17.00  -22074156.978
   17.50  -22074241.121
   18.00  -22074327.862
   18.50  -22074415.062
   19.00  -22074500.771
   19.50  -22074584.610
   20.00  -22074665.125
   20.50  -22074741.532
   21.00  -22074812.440
   21.50  -22074877.192
   22.00  -22074934.989
   22.50  -22074985.836
   23.00  -22075029.799
   23.50  -22075067.850
   24.00  -22075100.056
   24.50  -22075126.481
   25.00  -22075147.515
   25.50  -22075164.038
   26.00  -22075176.796
   26.50  -22075186.038
   27.00  -22075192.004
   27.50  -22075195.779
   28.00  -22075198.057
   28.50  -22075199.171
   29.00  -22075199.423
   29.50  -22075199.343
   30.00  -22075199.414
   30.50  -22075200.083
   31.00  -22075201.172
   31.50  -22075203.175
   32.00  -22075206.292
   32.50  -22075210.418
   33.00  -22075215.727
   33.50  -22075222.577
   34.00  -22075230.758
   34.50  -22075240.440
   35.00  -22075251.731
   35.50  -22075264.115
   36.00  -22075277.609
   36.50  -22075292.370
   37.00  -22075308.489
   37.50  -22075325.773
   38.00  -22075344.142
   38.50  -22075363.598
   39.00  -22075383.809
   39.50  -22075404.881
   40.00  -22075426.494
   40.50  -22075448.818
   41.00  -22075471.622
   41.50  -22075495.006
   42.00  -22075518.890
   42.50  -22075543.265
   43.00  -22075568.142
   43.50  -22075593.471
   44.00  -22075619.096
   44.50  -22075645.115
   45.00  -22075671.511
   45.50  -22075698.388
   46.00  -22075725.447
   46.50  -22075752.792
   47.00  -22075780.436
   47.50  -22075808.417
   48.00  -22075836.900
   48.50  -22075865.701
   49.00  -22075895.002
   49.50  -22075924.788
   50.00  -22075954.998
   50.50  -22075985.634
   51.00  -22076016.500
   51.50  -22076047.761
   52.00  -22076079.358
   52.50  -22076111.325
   53.00  -22076143.694
   53.50  -22076176.350
   54.00  -22076209.299
   54.50  -22076242.719
   55.00  -22076276.597
   55.50  -22076310.847
   56.00  -22076345.514
   56.50  -22076380.490
   57.00  -22076415.847
   57.50  -22076451.631
   58.00  -22076487.733
   58.50  -22076524.164
   59.00  -22076561.101
   59.50  -22076598.431
   60.00  -22076636.162
   60.50  -22076674.218
   61.00  -22076712.729
   61.50  -22076751.777
   62.00  -22076791.201
   62.50  -22076831.075
   63.00  -22076871.309
   63.50  -22076911.961
   64.00  -22076953.082
   64.50  -22076994.624
   65.00  -22077036.557
   65.50  -22077078.895
   66.00  -22077121.706
   66.50  -22077164.986
   67.00  -22077208.767
   67.50  -22077252.994
   68.00  -22077297.670
   68.50  -22077342.724
   69.00  -22077388.114
   69.50  -22077433.820
   70.00  -22077479.842
   70.50  -22077526.162
   71.00  -22077572.801
   71.50  -22077619.770
   72.00  -22077667.054
   72.50  -22077714.530
   73.00  -22077762.213
   73.50  -22077810.019
   74.00  -22077857.938
   74.50  -22077905.996
   75.00  -22077954.197
   75.50  -22078002.370
   76.00  -22078050.485
   76.50  -22078098.566
   77.00  -22078146.566
   77.50  -22078194.469
   78.00  -22078242.216
   78.50  -22078289.719
   79.00  -22078336.937
   79.50  -22078383.778
   80.00  -22078430.223
   80.50  -22078476.351
   81.00  -22078522.076
   81.50  -22078567.391
   82.00  -22078612.289
   82.50  -22078656.737
   83.00  -22078700.750
   83.50  -22078744.216
   84.00  -22078787.113
   84.50  -22078829.428
   85.00  -22078871.218
   85.50  -22078912.409
   86.00  -22078953.097
   86.50  -22078993.179
   87.00  -22079032.681
   87.50  -22079071.601
   88.00  -22079109.917
   88.50  -22079147.668
   89.00  -22079184.888
   89.50  -22079221.610
   90.00  -22079257.872
   90.50  -22079293.635
   91.00  -22079328.865
   91.50  -22079363.526
   92.00  -22079397.702
   92.50  -22079431.441
   93.00  -22079464.822
   93.50  -22079497.832
   94.00  -22079530.515
   94.50  -22079562.891
   95.00  -22079595.031
   95.50  -22079626.916
   96.00  -22079658.581
   96.50  -22079690.078
   97.00  -22079721.429
   97.50  -22079752.640
   98.00  -22079783.780
   98.50  -22079814.903
   99.00  -22079846.053
   99.50  -22079877.230
  100.00  -22079908.472
