Lk surface

Theta = 0.00006

Maximum at 4Ner(region) = 0.000 : Lk = -517930.281



4Ner(region)   Pairwise Lk

    0.00  -517930.281
    0.50  -517952.795
    1.00  -517999.362
    1.50  -518090.914
    2.00  -518187.920
    2.50  -518277.043
    3.00  -518357.099
    3.50  -518430.412
    4.00  -518499.844
    4.50  -518566.300
    5.00  -518629.594
    5.50  -518690.173
    6.00  -518749.051
    6.50  -518806.231
    7.00  -518861.795
    7.50  -518915.784
    8.00  -518968.217
    8.50  -519019.270
    9.00  -519068.910
    9.50  -519117.769
   10.00  -519165.712
   10.50  -519213.068
   11.00  -519259.612
   11.50  -519305.243
   12.00  -519350.124
   12.50  -519394.243
   13.00  -519437.525
   13.50  -519480.082
   14.00  -519521.741
   14.50  -519562.447
   15.00  -519602.315
   15.50  -519641.323
   16.00  -519679.450
   16.50  -519716.772
   17.00  -519753.350
   17.50  -519789.180
   18.00  -519824.280
   18.50  -519858.752
   19.00  -519892.603
   19.50  -519925.890
   20.00  -519958.675
   20.50  -519990.942
   21.00  -520022.709
   21.50  -520053.977
   22.00  -520084.828
   22.50  -520115.216
   23.00  -520145.170
   23.50  -520174.769
   24.00  -520204.014
   24.50  -520232.925
   25.00  -520261.466
   25.50  -520289.686
   26.00  -520317.662
   26.50  -520345.350
   27.00  -520372.772
   27.50  -520399.979
   28.00  -520426.958
   28.50  -520453.701
   29.00  -520480.158
   29.50  -520506.381
   30.00  -520532.360
   30.50  -520558.076
   31.00  -520583.576
   31.50  -520608.819
   32.00  -520633.814
   32.50  -520658.549
   33.00  -520683.048
   33.50  -520707.266
   34.00  -520731.224
   34.50  -520754.903
   35.00  -520778.336
   35.50  -520801.534
   36.00  -520824.496
   36.50  -520847.231
   37.00  -520869.782
   37.50  -520892.103
   38.00  -520914.218
   38.50  -520936.139
   39.00  -520957.899
   39.50  -520979.512
   40.00  -521000.957
   40.50  -521022.246
   41.00  -521043.417
   41.50  -521064.436
   42.00  -521085.317
   42.50  -521106.085
   43.00  -521126.709
   43.50  -521147.208
   44.00  -521167.638
   44.50  -521187.964
   45.00  -521208.167
   45.50  -521228.253
   46.00  -521248.242
   46.50  -521268.130
   47.00  -521287.905
   47.50  -521307.590
   48.00  -521327.153
   48.50  -521346.628
   49.00  -521365.976
   49.50  -521385.237
   50.00  -521404.412
   50.50  -521423.484
   51.00  -521442.453
   51.50  -521461.324
   52.00  -521480.095
   52.50  -521498.775
   53.00  -521517.371
   53.50  -521535.840
   54.00  -521554.205
   54.50  -521572.485
   55.00  -521590.668
   55.50  -521608.746
   56.00  -521626.716
   56.50  -521644.594
   57.00  -521662.371
   57.50  -521680.031
   58.00  -521697.604
   58.50  -521715.099
   59.00  -521732.507
   59.50  -521749.832
   60.00  -521767.058
   60.50  -521784.181
   61.00  -521801.211
   61.50  -521818.157
   62.00  -521835.017
   62.50  -521851.786
   63.00  -521868.473
   63.50  -521885.074
   64.00  -521901.584
   64.50  -521918.007
   65.00  -521934.344
   65.50  -521950.603
   66.00  -521966.795
   66.50  -521982.908
   67.00  -521998.944
   67.50  -522014.904
   68.00  -522030.784
   68.50  -522046.584
   69.00  -522062.312
   69.50  -522077.968
   70.00  -522093.560
   70.50  -522109.074
   71.00  -522124.521
   71.50  -522139.893
   72.00  -522155.188
   72.50  -522170.417
   73.00  -522185.585
   73.50  -522200.698
   74.00  -522215.746
   74.50  -522230.723
   75.00  -522245.639
   75.50  -522260.497
   76.00  -522275.302
   76.50  -522290.050
   77.00  -522304.736
   77.50  -522319.361
   78.00  -522333.930
   78.50  -522348.436
   79.00  -522362.889
   79.50  -522377.283
   80.00  -522391.617
   80.50  -522405.892
   81.00  -522420.109
   81.50  -522434.269
   82.00  -522448.386
   82.50  -522462.452
   83.00  -522476.459
   83.50  -522490.413
   84.00  -522504.311
   84.50  -522518.149
   85.00  -522531.935
   85.50  -522545.679
   86.00  -522559.381
   86.50  -522573.032
   87.00  -522586.641
   87.50  -522600.201
   88.00  -522613.709
   88.50  -522627.176
   89.00  -522640.606
   89.50  -522653.987
   90.00  -522667.326
   90.50  -522680.617
   91.00  -522693.862
   91.50  -522707.066
   92.00  -522720.230
   92.50  -522733.354
   93.00  -522746.434
   93.50  -522759.476
   94.00  -522772.477
   94.50  -522785.439
   95.00  -522798.361
   95.50  -522811.245
   96.00  -522824.098
   96.50  -522836.904
   97.00  -522849.678
   97.50  -522862.415
   98.00  -522875.125
   98.50  -522887.797
   99.00  -522900.434
   99.50  -522913.034
  100.00  -522925.597
