Lk surface

Theta = 0.00008

Maximum at 4Ner(region) = 0.000 : Lk = -1080383.081



4Ner(region)   Pairwise Lk

    0.00  -1080383.081
    0.50  -1080635.801
    1.00  -1080963.081
    1.50  -1081353.124
    2.00  -1081703.542
    2.50  -1082025.955
    3.00  -1082335.127
    3.50  -1082634.787
    4.00  -1082921.975
    4.50  -1083194.715
    5.00  -1083453.404
    5.50  -1083698.104
    6.00  -1083931.814
    6.50  -1084156.663
    7.00  -1084373.813
    7.50  -1084584.667
    8.00  -1084789.791
    8.50  -1084989.226
    9.00  -1085183.615
    9.50  -1085372.659
   10.00  -1085556.748
   10.50  -1085736.059
   11.00  -1085910.796
   11.50  -1086081.355
   12.00  -1086248.049
   12.50  -1086410.983
   13.00  -1086570.423
   13.50  -1086726.632
   14.00  -1086879.931
   14.50  -1087030.445
   15.00  -1087178.459
   15.50  -1087324.004
   16.00  -1087467.243
   16.50  -1087608.449
   17.00  -1087747.755
   17.50  -1087885.069
   18.00  -1088020.660
   18.50  -1088154.605
   19.00  -1088286.781
   19.50  -1088417.332
   20.00  -1088546.478
   20.50  -1088674.368
   21.00  -1088800.790
   21.50  -1088925.796
   22.00  -1089049.395
   22.50  -1089171.652
   23.00  -1089292.630
   23.50  -1089412.315
   24.00  -1089530.718
   24.50  -1089647.769
   25.00  -1089763.532
   25.50  -1089878.020
   26.00  -1089991.217
   26.50  -1090103.115
   27.00  -1090213.782
   27.50  -1090323.298
   28.00  -1090431.619
   28.50  -1090538.842
   29.00  -1090644.998
   29.50  -1090750.147
   30.00  -1090854.351
   30.50  -1090957.641
   31.00  -1091060.039
   31.50  -1091161.602
   32.00  -1091262.343
   32.50  -1091362.322
   33.00  -1091461.602
   33.50  -1091560.150
   34.00  -1091658.087
   34.50  -1091755.430
   35.00  -1091852.175
   35.50  -1091948.421
   36.00  -1092044.062
   36.50  -1092139.179
   37.00  -1092233.752
   37.50  -1092327.876
   38.00  -1092421.527
   38.50  -1092514.658
   39.00  -1092607.322
   39.50  -1092699.474
   40.00  -1092791.118
   40.50  -1092882.275
   41.00  -1092972.928
   41.50  -1093063.065
   42.00  -1093152.727
   42.50  -1093241.900
   43.00  -1093330.599
   43.50  -1093418.798
   44.00  -1093506.500
   44.50  -1093593.702
   45.00  -1093680.422
   45.50  -1093766.642
   46.00  -1093852.373
   46.50  -1093937.562
   47.00  -1094022.250
   47.50  -1094106.467
   48.00  -1094190.203
   48.50  -1094273.464
   49.00  -1094356.258
   49.50  -1094438.580
   50.00  -1094520.454
   50.50  -1094601.877
   51.00  -1094682.849
   51.50  -1094763.351
   52.00  -1094843.362
   52.50  -1094922.969
   53.00  -1095002.155
   53.50  -1095080.935
   54.00  -1095159.306
   54.50  -1095237.239
   55.00  -1095314.764
   55.50  -1095391.884
   56.00  -1095468.628
   56.50  -1095545.005
   57.00  -1095620.991
   57.50  -1095696.589
   58.00  -1095771.812
   58.50  -1095846.652
   59.00  -1095921.136
   59.50  -1095995.262
   60.00  -1096068.996
   60.50  -1096142.359
   61.00  -1096215.379
   61.50  -1096288.017
   62.00  -1096360.284
   62.50  -1096432.203
   63.00  -1096503.760
   63.50  -1096574.971
   64.00  -1096645.842
   64.50  -1096716.379
   65.00  -1096786.598
   65.50  -1096856.495
   66.00  -1096926.047
   66.50  -1096995.275
   67.00  -1097064.156
   67.50  -1097132.726
   68.00  -1097200.975
   68.50  -1097268.892
   69.00  -1097336.509
   69.50  -1097403.816
   70.00  -1097470.803
   70.50  -1097537.490
   71.00  -1097603.874
   71.50  -1097669.963
   72.00  -1097735.759
   72.50  -1097801.278
   73.00  -1097866.502
   73.50  -1097931.445
   74.00  -1097996.106
   74.50  -1098060.464
   75.00  -1098124.529
   75.50  -1098188.332
   76.00  -1098251.877
   76.50  -1098315.153
   77.00  -1098378.160
   77.50  -1098440.902
   78.00  -1098503.384
   78.50  -1098565.611
   79.00  -1098627.582
   79.50  -1098689.295
   80.00  -1098750.760
   80.50  -1098811.991
   81.00  -1098872.979
   81.50  -1098933.730
   82.00  -1098994.247
   82.50  -1099054.530
   83.00  -1099114.592
   83.50  -1099174.435
   84.00  -1099234.045
   84.50  -1099293.437
   85.00  -1099352.595
   85.50  -1099411.526
   86.00  -1099470.234
   86.50  -1099528.729
   87.00  -1099587.013
   87.50  -1099645.090
   88.00  -1099702.949
   88.50  -1099760.600
   89.00  -1099818.052
   89.50  -1099875.296
   90.00  -1099932.340
   90.50  -1099989.198
   91.00  -1100045.855
   91.50  -1100102.315
   92.00  -1100158.589
   92.50  -1100214.680
   93.00  -1100270.586
   93.50  -1100326.310
   94.00  -1100381.847
   94.50  -1100437.213
   95.00  -1100492.414
   95.50  -1100547.431
   96.00  -1100602.284
   96.50  -1100656.958
   97.00  -1100711.468
   97.50  -1100765.811
   98.00  -1100819.989
   98.50  -1100873.998
   99.00  -1100927.841
   99.50  -1100981.534
  100.00  -1101035.067
